Data from Subt6__0__15-47-59-652.txt Node

Date: Thu Feb 19 15:47:59 CET 2026
User: Versuch 234
Spectrometer: USB4F05580
Trigger mode: 4
Integration Time (sec): 4,000000E0
Scans to average: 20
Electric dark correction enabled: true
Nonlinearity correction enabled: false
Boxcar width: 0
XAxis mode: Wavelengths
Number of Pixels in Spectrum: 3648
>>>>>Begin Spectral Data<<<<<
197,409	-1774,17
197,623	-1774,17
197,837	-1774,17
198,051	-1843,67
198,265	-1834,96
198,479	1087,38
198,693	104,05
198,907	-261,48
199,122	-411,4
199,336	198,09
199,55	431,53
199,763	-648,84
199,977	805,77
200,191	583,45
200,405	27,04
200,619	-1065,74
200,833	-849,83
201,047	417,41
201,261	1230,08
201,475	169,15
201,689	608,78
201,903	2152,22
202,117	3786,59
202,331	721,55
202,545	810,68
202,758	2040,66
202,972	2613,69
203,186	2512,94
203,4	1327,62
203,614	1728,21
203,828	1422,66
204,041	550,3
204,255	1240,3
204,469	1392,62
204,683	1339,94
204,897	472,28
205,11	632,22
205,324	1743,13
205,538	3227,18
205,752	960,29
205,965	165,24
206,179	1281,46
206,393	2659,86
206,606	1346,65
206,82	858,95
207,034	2608,08
207,248	1979,17
207,461	722,85
207,675	495,92
207,889	1661,61
208,102	1763,06
208,316	1266,74
208,529	453,66
208,743	1895,25
208,957	1892,74
209,17	1153,57
209,384	868,86
209,597	1336,14
209,811	1853,59
210,025	1800,81
210,238	785,94
210,452	2325,97
210,665	1601,72
210,879	997,25
211,092	241,55
211,306	2182,96
211,519	1613,94
211,733	376,25
211,946	667,57
212,16	1484,45
212,373	1774,87
212,587	1551,45
212,8	712,03
213,014	1253,32
213,227	1726,1
213,44	741,17
213,654	575,53
213,867	1629,76
214,081	1756,65
214,294	404,69
214,507	541,69
214,721	1278,75
214,934	1536,33
215,148	1035,6
215,361	746,58
215,574	1250,21
215,788	2147,51
216,001	726,05
216,214	583,95
216,428	1389,51
216,641	1475,24
216,854	623
217,067	550,5
217,281	1709,08
217,494	2140,5
217,707	616,99
217,92	1092,08
218,134	1871,41
218,347	1165,19
218,56	1181,11
218,773	426,92
218,986	1579,99
219,2	1431,58
219,413	382,05
219,626	898,8
219,839	1724,6
220,052	2183,67
220,265	386,06
220,479	1130,94
220,692	2217,51
220,905	1087,48
221,118	1865,4
221,331	971,01
221,544	3000,85
221,757	1649,99
221,97	1225,98
222,183	1152,27
222,396	1771,87
222,609	2975,51
222,822	2407,49
223,035	1941,31
223,249	1872,71
223,462	2098,94
223,675	408,19
223,887	346,8
224,1	1733,91
224,313	1622,15
224,526	454,16
224,739	49,17
224,952	1859,5
225,165	1866,31
225,378	1399,23
225,591	1517,7
225,804	2990,13
226,017	1945,42
226,23	2216,21
226,443	907,01
226,656	2100,34
226,868	2025,04
227,081	920,43
227,294	1196,33
227,507	1621,65
227,72	2588,25
227,933	806,67
228,145	909,52
228,358	2344,5
228,571	1367,88
228,784	443,44
228,997	907,01
229,209	1573,68
229,422	1955,74
229,635	348,41
229,848	1133,24
230,06	1935,51
230,273	1291,67
230,486	784,34
230,698	1119,02
230,911	1458,91
231,124	1662,41
231,336	778,43
231,549	1681,64
231,762	1478,94
231,974	1910,77
232,187	900,31
232,4	601,17
232,612	1615,94
232,825	1041,01
233,038	106,45
233,25	1818,04
233,463	1829,05
233,675	2037,55
233,888	981,52
234,1	460,07
234,313	1668,52
234,526	1487,76
234,738	300,03
234,951	898,1
235,163	1899,45
235,376	2262,28
235,588	1282,46
235,801	1077,96
236,013	1899,05
236,226	1615,44
236,438	2235,24
236,65	1343,05
236,863	1665,01
237,075	1550,05
237,288	517,85
237,5	851,83
237,713	1472,13
237,925	2486,8
238,137	1240,3
238,35	1162,18
238,562	1533,92
238,774	1407,84
238,987	809,17
239,199	544,59
239,411	1826,15
239,624	1754,74
239,836	987,03
240,048	444,84
240,261	1481,45
240,473	2565,42
240,685	856,14
240,897	1107,81
241,11	2151,42
241,322	2064,59
241,534	778,13
241,746	921,04
241,959	1392,12
242,171	2118,57
242,383	1133,34
242,595	992,34
242,807	1268,34
243,02	1577,39
243,232	917,23
243,444	1164,19
243,656	1556,66
243,868	1989,88
244,08	829
244,293	703,92
244,505	3049,12
244,717	1944,52
244,929	469,38
245,141	899,2
245,353	2080,02
245,565	1788,09
245,777	1018,98
245,989	1313,8
246,201	2138
246,413	1518,5
246,625	1237,09
246,837	688,5
247,049	1573,28
247,261	1977,47
247,473	1322,92
247,685	1350,46
247,897	1277,25
248,109	1635,07
248,321	731,86
248,533	592,86
248,745	2126,18
248,957	2995,84
249,169	824,9
249,381	765,31
249,593	2121,38
249,804	2223,82
250,016	837,81
250,228	437,33
250,44	1259,33
250,652	1836,86
250,864	434,93
251,075	1801,51
251,287	2322,57
251,499	3052,32
251,711	836,01
251,923	575,03
252,134	2326,77
252,346	1934
252,558	958,99
252,77	1640,38
252,982	2356,22
253,193	2054,38
253,405	1001,75
253,617	1966,65
253,828	1674,63
254,04	1906,06
254,252	931,95
254,463	1206,25
254,675	2731,86
254,887	1853,69
255,098	1340,44
255,31	758
255,522	1979,27
255,733	2497,02
255,945	1118,92
256,157	666,97
256,368	1967,65
256,58	2786,54
256,791	675,08
257,003	1714,49
257,214	1580,29
257,426	2041,26
257,637	1153,07
257,849	732,66
258,061	3126,93
258,272	1992,69
258,484	1078,26
258,695	2101,65
258,907	2748,38
259,118	2071,8
259,329	1144,16
259,541	1245,51
259,752	2515,65
259,964	2906,31
260,175	1157,68
260,387	1397,83
260,598	4044,56
260,809	2030,04
261,021	2258,17
261,232	1401,83
261,444	2374,94
261,655	2282,21
261,866	1283,06
262,078	1480,75
262,289	3119,12
262,5	2437,43
262,712	1891,64
262,923	1853,89
263,134	2522,66
263,345	2760,7
263,557	1257,22
263,768	1457,21
263,979	2213,01
264,191	2287,82
264,402	1552,15
264,613	1169,9
264,824	2549,6
265,035	2944,97
265,247	1533,72
265,458	1877,52
265,669	2226,33
265,88	2664,96
266,091	2510,84
266,302	993,74
266,514	2540,08
266,725	2277,2
266,936	1296,68
267,147	2249,06
267,358	2204,1
267,569	1749,64
267,78	1829,65
267,991	1673,23
268,202	2428,12
268,414	3267,94
268,625	1054,83
268,836	1345,25
269,047	2467,78
269,258	2152,62
269,469	1085,07
269,68	2106,15
269,891	2304,24
270,102	2949,38
270,313	1909,07
270,524	1540,03
270,735	2535,78
270,945	2514,14
271,156	2192,78
271,367	2105,25
271,578	2459,77
271,789	2488,91
272	1591,41
272,211	1466,73
272,422	2425,52
272,633	2498,12
272,844	1843,67
273,054	1861,5
273,265	2687,3
273,476	3118,12
273,687	1306,79
273,898	1340,34
274,109	2625,61
274,319	2890,49
274,53	2344
274,741	1487,46
274,952	3065,64
275,162	2887,09
275,373	1990,08
275,584	1548,64
275,795	2677,18
276,005	3073,46
276,216	2573,93
276,427	1536,43
276,637	2780,93
276,848	2735,87
277,059	1512,49
277,269	2711,53
277,48	2652,14
277,691	3743,13
277,901	2982,52
278,112	2205,6
278,323	2795,75
278,533	2540,38
278,744	2421,61
278,954	1747,23
279,165	3152,87
279,376	2763,51
279,586	2958,29
279,797	1837,86
280,007	2727,45
280,218	3090,28
280,428	1737,52
280,639	2531,07
280,849	3263,33
281,06	3148,66
281,27	2712,73
281,481	1860,2
281,691	3102,8
281,902	3042,81
282,112	3253,72
282,322	3017,37
282,533	3653
282,743	3599,02
282,954	3037,5
283,164	2455,06
283,374	3155,87
283,585	3326,62
283,795	2693,7
284,006	2486,3
284,216	2615,19
284,426	3209,85
284,637	2474,89
284,847	2069,8
285,057	3348,45
285,268	4096,24
285,478	1785,39
285,688	2349,41
285,898	3372,99
286,109	2800,46
286,319	2541,38
286,529	2432,73
286,739	2351,41
286,95	2101,85
287,16	1522,41
287,37	2765,21
287,58	1942,22
287,79	2149,52
288,001	2058,58
288,211	933,15
288,421	2423,51
288,631	2242,15
288,841	1781,68
289,051	1195,63
289,261	1982,87
289,471	1910,37
289,682	1698,96
289,892	2085,32
290,102	2135,9
290,312	2262,18
290,522	1506,88
290,732	1783,49
290,942	2349,31
291,152	2721,04
291,362	1666,02
291,572	1681,24
291,782	3256,72
291,992	2160,13
292,202	890,39
292,412	2983,32
292,622	1586,3
292,832	2223,32
293,042	1306,09
293,252	699,01
293,462	1251,61
293,672	1770,57
293,881	1107,21
294,091	1283,16
294,301	2303,74
294,511	1876,72
294,721	903,21
294,931	1321,42
295,141	1928,8
295,35	1629,96
295,56	2537,88
295,77	1640,88
295,98	2262,88
296,19	1531,92
296,4	1308,2
296,609	1466,73
296,819	2550,5
297,029	1385,71
297,239	1587,2
297,448	802,06
297,658	1558,86
297,868	1772,67
298,077	1781,38
298,287	1979,07
298,497	2866,76
298,706	1872,01
298,916	1393,02
299,126	789,14
299,335	1424,46
299,545	3009,56
299,755	1543,84
299,964	908,42
300,174	1775,37
300,384	1352,86
300,593	1454,11
300,803	1329,83
301,012	2732,96
301,222	1762,45
301,431	923,14
301,641	1598,02
301,851	1259,53
302,06	1494,97
302,27	1528,52
302,479	1790,8
302,689	1964,25
302,898	2699,91
303,107	1827,45
303,317	1989,48
303,526	3174,9
303,736	2167,34
303,945	2831,6
304,155	1158,68
304,364	2024,43
304,574	2604,38
304,783	1519,6
304,992	1699,06
305,202	2963,7
305,411	1781,78
305,62	1154,97
305,83	1704,87
306,039	5087,47
306,248	1675,43
306,458	1244,9
306,667	1400,43
306,876	1490,36
307,086	3024,38
307,295	2112,26
307,504	1229,48
307,713	1300,49
307,923	1379,4
308,132	1533,72
308,341	1517
308,55	2022,23
308,76	2486,2
308,969	2126,58
309,178	1034,4
309,387	2425,62
309,596	1609,13
309,805	2188,77
310,015	1725,2
310,224	3157,28
310,433	1964,65
310,642	1294,98
310,851	1277,65
311,06	2187,77
311,269	2048,37
311,478	1302,69
311,687	989,94
311,896	1816,23
312,106	1946,62
312,315	1910,67
312,524	1411,85
312,733	1443,79
312,942	1657,8
313,151	1217,26
313,36	1444,09
313,569	2117,57
313,778	2634,42
313,987	1389,41
314,195	1600,52
314,404	3000,15
314,613	1721,7
314,822	1591,81
315,031	1351,26
315,24	2041,36
315,449	2721,55
315,658	1431,37
315,867	1623,85
316,076	2978,62
316,284	2740,57
316,493	1394,42
316,702	1835,66
316,911	1970,86
317,12	2990,74
317,329	1439,19
317,537	1411,65
317,746	2129,09
317,955	1785,89
318,164	1609,63
318,372	1735,12
318,581	1957,04
318,79	2520,45
318,999	2085,12
319,207	2085,02
319,416	2387,76
319,625	2247,66
319,833	1638,58
320,042	1212,56
320,251	2393,77
320,459	2354,71
320,668	2199,39
320,877	1747,63
321,085	2375,94
321,294	3052,83
321,502	1339,84
321,711	1766,56
321,92	2406,99
322,128	3147,06
322,337	1611,04
322,545	1979,27
322,754	2918,53
322,962	2043,46
323,171	2065,89
323,379	1756,85
323,588	3095,29
323,796	3882,83
324,005	1974,86
324,213	1957,34
324,422	2821,89
324,63	2439,84
324,839	4137,8
325,047	2728,76
325,256	3222,47
325,464	4242,45
325,672	3234,29
325,881	2899,6
326,089	3676,23
326,297	3527,51
326,506	3628,06
326,714	3572,08
326,923	3886,83
327,131	4760,6
327,339	4430,62
327,548	6014,02
327,756	9314,5
327,964	16181,46
328,172	30108,65
328,381	50182,14
328,589	62255,65
328,797	62021,41
329,005	62560,49
329,214	62610,56
329,422	62626,58
329,63	62584,52
329,838	62584,52
330,046	62494,39
330,255	62622,58
330,463	62592,53
330,671	62712,71
330,879	62598,54
331,087	62612,56
331,295	62628,59
331,503	62574,51
331,712	62518,43
331,92	62734,74
332,128	62624,58
332,336	62564,49
332,544	54880,56
332,752	34055,47
332,96	8476,89
333,168	5442,59
333,376	4987,73
333,584	4397,27
333,792	3667,72
334	3605,43
334,208	3380,8
334,416	3990,38
334,624	3003,65
334,832	2901,01
335,04	2441,14
335,248	3477,54
335,456	3486,65
335,664	2608,88
335,872	2508,54
336,08	3027,09
336,287	3416,05
336,495	2298,23
336,703	2377,95
336,911	2392,57
337,119	2994,44
337,327	2008,01
337,535	2867,06
337,742	3493,26
337,95	2661,46
338,158	2958,49
338,366	1933,3
338,573	3632,67
338,781	2396,97
338,989	2544,19
339,197	1890,44
339,404	3832,16
339,612	2776,22
339,82	2314,96
340,028	2098,24
340,235	3443,09
340,443	2606,58
340,651	1792,3
340,858	1719,39
341,066	3024,08
341,274	3617,04
341,481	1803,91
341,689	1791,7
341,896	2478,89
342,104	2804,37
342,312	2028,34
342,519	1829,65
342,727	2609,48
342,934	2506,53
343,142	1917,98
343,349	2590,35
343,557	2269,99
343,765	2664,76
343,972	2588,75
344,18	2374,44
344,387	2463,57
344,594	3290,87
344,802	2083,22
345,009	1833,46
345,217	2738,17
345,424	2417,4
345,632	3214,36
345,839	2146,21
346,047	3107,7
346,254	3305,49
346,461	2108,96
346,669	2357,42
346,876	2424,71
347,083	2999,85
347,291	2101,35
347,498	2833,31
347,705	2327,07
347,913	2859,65
348,12	2044,06
348,327	2387,06
348,535	3078,86
348,742	3439,29
348,949	2219,82
349,156	2653,75
349,364	2232,24
349,571	2386,36
349,778	2686,69
349,985	1898,55
350,192	2917,83
350,4	2115,27
350,607	1815,63
350,814	2145,91
351,021	2596,76
351,228	2623,3
351,435	2152,92
351,643	2480,2
351,85	3099,19
352,057	2741,77
352,264	1928,5
352,471	2126,08
352,678	2728,56
352,885	2418,51
353,092	3083,17
353,299	2304,74
353,506	2421,81
353,713	2864,95
353,92	2313,55
354,127	2906,71
354,334	3794,4
354,541	2544,79
354,748	2322,07
354,955	2226,93
355,162	2894,6
355,369	2630,91
355,576	2619,2
355,783	2590,35
355,99	3111,71
356,197	2663,36
356,404	2213,31
356,611	2525,86
356,817	3633,87
357,024	2769,31
357,231	2593,06
357,438	2526,46
357,645	3390,21
357,852	3487,56
358,058	2663,36
358,265	2797,56
358,472	3336,44
358,679	3920,68
358,885	3283,86
359,092	2247,16
359,299	3936,31
359,506	3974,96
359,712	3143,16
359,919	2474,19
360,126	3319,41
360,333	2904,21
360,539	2403,58
360,746	2533,77
360,953	3313,9
361,159	3222,47
361,366	2497,02
361,572	3463,72
361,779	2874,67
361,986	3762,45
362,192	2377,85
362,399	2429,42
362,605	4003,7
362,812	2610,58
363,019	3619,35
363,225	2818,99
363,432	3319,21
363,638	3555,75
363,845	2444,74
364,051	2367,93
364,258	2646,14
364,464	2814,38
364,671	3420,26
364,877	2065,69
365,084	3640,48
365,29	3268,74
365,496	2666,67
365,703	2011,92
365,909	3014,37
366,116	3343,15
366,322	2794,85
366,528	2712,93
366,735	2924,74
366,941	3025,09
367,147	2901,21
367,354	3103,4
367,56	3475,64
367,766	3369,78
367,973	2285,71
368,179	2569,83
368,385	4043,96
368,592	2936,56
368,798	2983,02
369,004	2199,49
369,21	3365,58
369,417	2811,58
369,623	2017,32
369,829	3145,56
370,035	3340,54
370,241	2845,12
370,448	2191,98
370,654	2281,61
370,86	3149,06
371,066	3279,05
371,272	2806,57
371,478	2174,75
371,684	8927,74
371,891	3630,76
372,097	2202,39
372,303	2668,97
372,509	3295,78
372,715	3608,03
372,921	2388,76
373,127	2392,37
373,333	3206,85
373,539	2704,12
373,745	2841,62
373,951	1988,88
374,157	2858,44
374,363	2994,44
374,569	2948,57
374,775	3657
374,981	4304,44
375,187	3020,48
375,393	2844,72
375,599	2626,31
375,804	3104,8
376,01	2707,52
376,216	2395,27
376,422	2676,38
376,628	3132,84
376,834	3181,11
377,04	3386,81
377,246	3061,44
377,451	3840,87
377,657	3158,08
377,863	2692,9
378,069	2926,04
378,274	3293,67
378,48	2891,79
378,686	2618,2
378,892	2455,06
379,097	3912,47
379,303	3725,1
379,509	2138,4
379,715	4131,89
379,92	4606,68
380,126	3434,48
380,332	3209,25
380,537	3653,9
380,743	2871,66
380,949	4006,21
381,154	2292,32
381,36	2572,03
381,565	2852,74
381,771	2786,74
381,977	2019,83
382,182	2688,6
382,388	3034,3
382,593	3623,95
382,799	2734,76
383,004	2349,71
383,21	3445,29
383,415	3393,82
383,621	3205,45
383,826	2689,1
384,032	2946,47
384,237	4198,89
384,443	1897,25
384,648	1932,6
384,854	3929,3
385,059	4597,16
385,265	2851,33
385,47	3009,16
385,675	3466,63
385,881	3351,96
386,086	2463,37
386,291	1981,87
386,497	3763,86
386,702	3098,89
386,907	2678,68
387,113	2789,54
387,318	2913,82
387,523	3535,73
387,729	2073,11
387,934	1968,25
388,139	3086,37
388,344	2713,43
388,55	2509,04
388,755	2578,24
388,96	2572,13
389,165	2932,65
389,371	2456,06
389,576	2667,07
389,781	2437,23
389,986	3527,91
390,191	2708,43
390,396	2094,84
390,601	3533,52
390,807	3108,01
391,012	2495,22
391,217	2676,38
391,422	3278,45
391,627	3553,05
391,832	2713,73
392,037	2495,82
392,242	2812,18
392,447	3760,05
392,652	2083,72
392,857	2096,34
393,062	3127,33
393,267	3164,99
393,472	2879,07
393,677	3416,25
393,882	3977,57
394,087	3625,96
394,292	3274,65
394,497	3211,96
394,702	3754,94
394,907	3791,3
395,112	3454,31
395,317	2532,27
395,521	3931,7
395,726	3202,84
395,931	2968,2
396,136	2075,41
396,341	4222,22
396,546	2839,12
396,75	2387,86
396,955	3174,9
397,16	3715,89
397,365	3093,48
397,57	3177,61
397,774	2269,79
397,979	3089,38
398,184	3239,9
398,389	1901,46
398,593	2278,3
398,798	3529,92
399,003	2619,4
399,207	2582,84
399,412	2644,13
399,617	2614,59
399,821	3568,67
400,026	2536,88
400,231	2972,11
400,435	2658,45
400,64	3072,25
400,844	2799,56
401,049	2749,19
401,254	3809,02
401,458	2791,15
401,663	3508,79
401,867	3094,89
402,072	2579,24
402,276	3192,73
402,481	2790,85
402,685	2245,05
402,89	3650,39
403,094	4011,41
403,299	3670,62
403,503	3743,83
403,708	5840,37
403,912	4589,95
404,116	4383,35
404,321	4147,41
404,525	4646,54
404,73	4478,19
404,934	3250,51
405,138	3265,63
405,343	4347,2
405,547	4407,29
405,751	3259,63
405,956	3129,74
406,16	3934,1
406,364	4924,14
406,569	3290,27
406,773	2194,08
406,977	3562,86
407,181	4025,94
407,386	2633,32
407,59	3163,09
407,794	3748,73
407,998	3300,08
408,202	2997,45
408,407	2861,45
408,611	3538,33
408,815	3606,63
409,019	3207,35
409,223	2789,24
409,427	3573,08
409,632	4110,76
409,836	2985,63
410,04	3293,47
410,244	3596,81
410,448	3061,24
410,652	2999,65
410,856	2355,51
411,06	3330,83
411,264	3329,43
411,468	2634,52
411,672	2767,41
411,876	2907,51
412,08	3372,99
412,284	2808,87
412,488	2334,68
412,692	3775,17
412,896	3266,23
413,1	2448,95
413,304	2789,24
413,508	3702,07
413,712	3744,83
413,916	2824,19
414,12	3490,76
414,323	4862,65
414,527	5552,75
414,731	8435,33
414,935	7691,95
415,139	9136,04
415,343	9165,19
415,546	8331,38
415,75	8013,42
415,954	7348,55
416,158	7733,91
416,361	5261,03
416,565	5120,52
416,769	5472,13
416,973	5632,87
417,176	4833,21
417,38	5601,72
417,584	5829,45
417,788	6618,49
417,991	6040,26
418,195	5776,47
418,398	7977,96
418,602	8865,55
418,806	8308,34
419,009	10187,27
419,213	10983,02
419,417	12032,74
419,62	10262,98
419,824	8786,24
420,027	9260,02
420,231	8105,65
420,434	6516,65
420,638	5379,2
420,841	5661,41
421,045	5575,68
421,248	4171,35
421,452	3847,68
421,655	4880,57
421,859	4180,36
422,062	2810,67
422,266	3163,09
422,469	4196,18
422,673	3161,38
422,876	3130,34
423,079	2714,03
423,283	3808,42
423,486	3796,9
423,689	4141,3
423,893	3061,64
424,096	4231,63
424,299	4142,91
424,503	4494,82
424,706	3836,06
424,909	4894,9
425,113	5291,97
425,316	4645,93
425,519	5805,62
425,722	6395,97
425,926	7188,42
426,129	5886,53
426,332	7045,01
426,535	6567,72
426,739	7256,72
426,942	6308,75
427,145	5666,61
427,348	5255,72
427,551	4826,2
427,754	4129,79
427,957	3893,94
428,161	4089,53
428,364	5159,18
428,567	4573,73
428,77	4027,34
428,973	5097,59
429,176	5396,12
429,379	5465,72
429,582	4514,64
429,785	4543,59
429,988	4988,63
430,191	3781,88
430,394	3567,47
430,597	4372,04
430,8	4028,04
431,003	4209,4
431,206	3389,91
431,409	4497,72
431,612	4170,75
431,815	3609,83
432,018	4064,39
432,221	5052,92
432,423	5241,9
432,626	5654,3
432,829	4767,61
433,032	6062,89
433,235	6214,41
433,438	5255,12
433,64	5588,9
433,843	5137,55
434,046	4403,28
434,249	3501,48
434,452	3532,12
434,654	5341,04
434,857	4250,86
435,06	3334,43
435,263	3574,48
435,465	3899,45
435,668	4465,07
435,871	3065,64
436,073	3233,99
436,276	3760,05
436,479	4338,59
436,681	2887,49
436,884	3369,38
437,087	3501,58
437,289	4164,24
437,492	4417,1
437,694	3335,44
437,897	3857,79
438,1	3885,13
438,302	3338,84
438,505	3391,92
438,707	4799,26
438,91	3966,25
439,112	2891,99
439,315	3287,77
439,517	3895,45
439,72	4091,33
439,922	3254,22
440,125	3097,59
440,327	3807,12
440,529	4396,37
440,732	2967,1
440,934	4089,13
441,137	3810,72
441,339	4084,52
441,541	3628,66
441,744	3810,52
441,946	4303,04
442,148	3812,93
442,351	3108,21
442,553	3236,99
442,755	4263,78
442,958	3886,13
443,16	3447,4
443,362	3012,37
443,565	4035,45
443,767	3983,27
443,969	3583,29
444,171	3723,3
444,373	4008,41
444,576	4483,3
444,778	2944,07
444,98	3087,68
445,182	4433,13
445,384	3843,37
445,586	3117,52
445,789	3049,62
445,991	4486,7
446,193	4379,25
446,395	3184,32
446,597	3235,89
446,799	4832,2
447,001	4392,57
447,203	3158,58
447,405	3512,99
447,607	3805,42
447,809	3688,75
448,011	3924,49
448,213	4014,52
448,415	4899,1
448,617	4800,16
448,819	4386,26
449,021	4296,53
449,223	4921,43
449,425	5795,5
449,627	4618,7
449,829	4895,3
450,031	5495,67
450,233	5514,39
450,435	4933,05
450,636	4111,56
450,838	4805,17
451,04	5080,06
451,242	4389,86
451,444	4209,1
451,646	4742,37
451,847	4928,95
452,049	3367,28
452,251	4303,24
452,453	5066,95
452,654	4959,39
452,856	3945,12
453,058	4200,59
453,26	5044,71
453,461	5153,37
453,663	4946,47
453,865	4332,48
454,066	5859,09
454,268	7390,91
454,47	6884,28
454,671	6900,5
454,873	8325,37
455,074	8044,36
455,276	7188,12
455,478	6376,14
455,679	6533,37
455,881	6222,22
456,082	4725,05
456,284	5264,33
456,485	5114,81
456,687	5104,6
456,888	6245,05
457,09	4276,5
457,291	4956,59
457,493	5166,39
457,694	3496,07
457,896	4412,9
458,097	5046,82
458,299	4553,8
458,5	4926,84
458,701	3805,42
458,903	5945,72
459,104	5845,17
459,306	3933,4
459,507	4594,26
459,708	5084,47
459,91	4804,26
460,111	5867,81
460,312	4353,51
460,514	5115,62
460,715	5362,87
460,916	4451,55
461,117	3970,86
461,319	4622
461,52	6168,84
461,721	4142,2
461,922	4217,61
462,124	5492,66
462,325	5567,77
462,526	4425,52
462,727	4305,64
462,928	4965,6
463,129	4865,95
463,331	5048,02
463,532	3983,67
463,733	5884,23
463,934	4593,86
464,135	4170,25
464,336	3770,97
464,537	5047,92
464,738	5107,5
464,939	5200,64
465,14	5012,67
465,341	7141,35
465,542	7406,94
465,743	8765,21
465,944	9313
466,145	10138,2
466,346	11471,23
466,547	9183,21
466,748	9620,95
466,949	9240,09
467,15	9099,19
467,351	7207,15
467,552	7741,92
467,753	6842,82
467,953	7878,02
468,154	6006,41
468,355	4753,49
468,556	5455,61
468,757	5561,16
468,958	5743,13
469,158	4407,59
469,359	5262,03
469,56	5009,26
469,761	4298,33
469,962	5097,49
470,162	5079,16
470,363	5462,22
470,564	4946,17
470,764	5593,61
470,965	5182,61
471,166	5725,6
471,366	5347,05
471,567	10908,61
471,768	5488,66
471,968	5747,73
472,169	4499,32
472,37	4308,25
472,57	5197,23
472,771	5041,11
472,971	5680,94
473,172	4900,2
473,373	5300,28
473,573	6389,86
473,774	5237,19
473,974	6508,74
474,175	8941,96
474,375	7692,25
474,576	6843,02
474,776	6853,53
474,977	7809,72
475,177	7633,67
475,377	6897,6
475,578	7045,71
475,778	7404,73
475,979	6771,12
476,179	7263,43
476,379	5615,04
476,58	6235,54
476,78	5817,83
476,981	5374,09
477,181	5137,05
477,381	5621,65
477,582	6407,99
477,782	4926,14
477,982	4917,33
478,182	5596,61
478,383	5373,79
478,583	6568,32
478,783	5080,66
478,983	6450,15
479,184	6894,09
479,384	5682,94
479,584	6071,9
479,784	6072,5
479,984	5829,75
480,184	5153,17
480,385	5097,59
480,585	6412,2
480,785	5950,33
480,985	5265,93
481,185	5565,07
481,385	6331,18
481,585	6055,58
481,785	5366,18
481,985	5893,14
482,185	6585,75
482,385	6183,66
482,585	5205,35
482,785	5870,21
482,985	6032,64
483,185	6837,41
483,385	5342,24
483,585	5894,64
483,785	6061,29
483,985	6254,27
484,185	5471,93
484,385	5219,87
484,585	6379,35
484,785	6372,64
484,985	5445,39
485,185	5750,44
485,384	7199,84
485,584	6268,29
485,784	5777,68
485,984	5977,36
486,184	6725,35
486,383	6082,22
486,583	7587,8
486,783	6145,11
486,983	7099,49
487,183	7832,35
487,382	6981,12
487,582	6540,98
487,782	7968,05
487,981	7295,38
488,181	6825,09
488,381	6341,49
488,58	8352,41
488,78	7166,99
488,98	6633,82
489,179	6278,1
489,379	7693,55
489,579	8310,45
489,778	6957,29
489,978	6624,5
490,177	7060,23
490,377	7380,8
490,576	6575,33
490,776	6496,72
490,975	7356,86
491,175	7114,31
491,374	7597,11
491,574	6279,7
491,773	6810,97
491,973	8771,21
492,172	8711,03
492,372	9311,2
492,571	13475,63
492,771	11292,07
492,97	10757,89
493,169	12376,74
493,369	11760,35
493,568	10970,9
493,767	9204,04
493,967	9326,82
494,166	10247,25
494,365	9157,07
494,565	8051,27
494,764	9100,39
494,963	8003
495,163	11408,34
495,362	7404,83
495,561	7100,69
495,76	7944,02
495,959	8309,85
496,159	9400,73
496,358	10947,97
496,557	18141,3
496,756	26706,31
496,955	41140,14
497,155	54570,91
497,354	60499,6
497,553	60712,21
497,752	62126,96
497,951	62206,07
498,15	62640,6
498,349	62582,52
498,548	62614,57
498,747	62610,56
498,946	61947,1
499,145	50932,13
499,344	35261,11
499,543	25499,96
499,742	18920,63
499,941	14651,64
500,14	10798,25
500,339	10182,56
500,538	9640,98
500,737	9794,2
500,936	8267,58
501,135	7873,41
501,334	8157,93
501,533	8327,27
501,732	7179,21
501,931	7094,38
502,129	8211,1
502,328	9267,63
502,527	7813,13
502,726	7291,37
502,925	8158,43
503,123	8671,37
503,322	8223,32
503,521	7332,53
503,72	7851,18
503,919	7696,56
504,117	7260,52
504,316	8158,63
504,515	8453,05
504,713	8367,23
504,912	7195,43
505,111	8002,5
505,309	8465,67
505,508	7971,36
505,707	7832,95
505,905	7133,34
506,104	7883,53
506,302	8041,86
506,501	7469,23
506,7	8929,34
506,898	8363,92
507,097	8857,74
507,295	8379,35
507,494	7143,66
507,692	8069,1
507,891	8253,66
508,089	7437,78
508,288	9194,03
508,486	8543,28
508,685	8417,4
508,883	8278,4
509,082	7801,01
509,28	8826,6
509,478	8298,63
509,677	8368,53
509,875	7555,45
510,073	10074,7
510,272	8561,21
510,47	7829,85
510,669	7736,72
510,867	8566,52
511,065	8856,04
511,263	8164,13
511,462	8111,46
511,66	8402,88
511,858	8877,77
512,056	7634,57
512,255	11887,43
512,453	9110,01
512,651	8985,12
512,849	8855,94
513,048	8609,28
513,246	10022,53
513,444	10299,53
513,642	11788,99
513,84	13941,11
514,038	19027,18
514,236	22717,03
514,435	24863,64
514,633	27946,91
514,831	28645,02
515,029	28932,74
515,227	26963,79
515,425	25251
515,623	24586,34
515,821	23178,3
516,019	21294,07
516,217	19418,75
516,415	18025,03
516,613	16189,87
516,811	13231,38
517,009	11052,52
517,207	11185,21
517,405	10923,03
517,602	10280,5
517,8	9761,45
517,998	10454,66
518,196	11592
518,394	9925,69
518,592	9726
518,79	11428,37
518,987	10837,01
519,185	9333,13
519,383	9275,45
519,581	11746,93
519,779	10286,71
519,976	9845,97
520,174	9484,85
520,372	9968,15
520,57	9743,72
520,767	9325,22
520,965	9609,23
521,163	10542,78
521,36	11050,82
521,558	9731,91
521,756	10802,46
521,953	11311,6
522,151	10623
522,349	10120,87
522,546	10394,47
522,744	12244,65
522,941	10682,29
523,139	10618,29
523,336	10626,9
523,534	11122,22
523,731	11192,12
523,929	9675,13
524,126	10019,82
524,324	10610,58
524,521	11466,92
524,719	11165,29
524,916	11212,75
525,114	10663,46
525,311	10962,99
525,509	11214,96
525,706	10276,7
525,903	13642,08
526,101	11028,89
526,298	10605,57
526,496	10319,46
526,693	10976,01
526,89	11584,59
527,088	10916,12
527,285	10344,4
527,482	11463,02
527,679	11687,84
527,877	10771,71
528,074	10938,26
528,271	11132,24
528,468	12041,15
528,666	11011,16
528,863	11488,95
529,06	11494,06
529,257	12867,45
529,454	11652,59
529,652	10692,3
529,849	13237,39
530,046	12100,54
530,243	11278,65
530,44	10899,9
530,637	11535,02
530,834	12473,18
531,031	11429,07
531,228	11464,22
531,425	13504,08
531,622	13335,73
531,819	11850,88
532,016	12103,65
532,213	12576,43
532,41	12725,25
532,607	13053,02
532,804	12818,58
533,001	13095,98
533,198	12836,31
533,395	12570,62
533,592	12286,01
533,789	12662,56
533,986	13495,96
534,183	12588,95
534,38	12777,52
534,576	13666,91
534,773	13424,36
534,97	12880,77
535,167	12555,7
535,364	13968,95
535,561	13641,98
535,757	13133,54
535,954	12478,39
536,151	13915,87
536,348	13312,8
536,544	13705,17
536,741	12573,63
536,938	14010,01
537,134	14391,16
537,331	13453,3
537,528	13076,66
537,724	13876,52
537,921	13966,15
538,118	13387,01
538,314	12969,6
538,511	14718,84
538,707	14864,05
538,904	14589,05
539,101	14227,62
539,297	15065,74
539,494	14829,6
539,69	14168,84
539,887	14286,91
540,083	15329,62
540,28	15785,48
540,476	15789,79
540,673	14707,42
540,869	15955,13
541,066	15383,8
541,262	15236,79
541,458	15753,44
541,655	16332,88
541,851	16199,88
542,048	15572,97
542,244	15263,53
542,44	16316,65
542,637	15814,12
542,833	15674,52
543,029	15591,1
543,226	16564,91
543,422	17256,31
543,618	16054,87
543,814	16283,2
544,011	16782,13
544,207	16741,07
544,403	17076,35
544,599	16888,08
544,796	17346,04
544,992	17632,56
545,188	17451,6
545,384	16905,41
545,58	17775,77
545,776	19044,51
545,972	17408,64
546,169	17549,34
546,365	18249,25
546,561	18776,22
546,757	18121,07
546,953	18344,89
547,149	18290,31
547,345	18825,39
547,541	18687,39
547,737	17855,18
547,933	19007,35
548,129	19052,42
548,325	18615,69
548,521	18978,71
548,717	19913,67
548,913	20493,51
549,109	20195,88
549,305	19916,87
549,501	21214,05
549,697	21159,67
549,892	20044,36
550,088	20066,09
550,284	21396,62
550,48	22015,11
550,676	21138,64
550,872	20641,82
551,067	21429,86
551,263	21642,27
551,459	20552,49
551,655	21894,24
551,85	22367,12
552,046	21673,02
552,242	21382,6
552,438	22056,37
552,633	22419,3
552,829	23297,87
553,025	22738,86
553,22	23026,38
553,416	24505,02
553,612	23850,17
553,807	24031,94
554,003	23704,46
554,198	24541,28
554,394	26184,36
554,59	24874,36
554,785	24808,56
554,981	26118,06
555,176	27058,82
555,372	27537,22
555,567	28239,94
555,763	30100,13
555,958	30387,75
556,154	31368,27
556,349	33399,72
556,545	35356,85
556,74	36316,34
556,936	37286,25
557,131	38915,81
557,326	40879,96
557,522	44876,75
557,717	46347,19
557,912	49988,66
558,108	52932,63
558,303	55022,86
558,498	56275,08
558,694	56285,49
558,889	56384,34
559,084	56729,54
559,28	56057,96
559,475	56555,18
559,67	57647,77
559,865	58378,83
560,061	58895,48
560,256	59883,81
560,451	60564,59
560,646	61247,69
560,841	61798,98
561,037	62187,45
561,232	62586,53
561,427	62554,48
561,622	62592,53
561,817	62566,5
562,012	62606,55
562,207	62630,59
562,402	62540,46
562,597	62612,56
562,792	62566,5
562,987	62666,64
563,182	62614,57
563,377	62670,65
563,572	62598,54
563,767	62622,58
563,962	62586,53
564,157	62638,6
564,352	62614,57
564,547	62562,49
564,742	62622,58
564,937	62510,42
565,132	62598,54
565,327	62570,5
565,522	62604,55
565,716	62592,53
565,911	62580,52
566,106	62616,57
566,301	62580,52
566,496	62594,54
566,691	62504,41
566,885	62562,49
567,08	62634,6
567,275	62594,54
567,47	62618,57
567,664	62638,6
567,859	62586,53
568,054	62580,52
568,248	62546,47
568,443	62544,46
568,638	62530,44
568,832	62684,67
569,027	62614,57
569,222	62530,44
569,416	62496,4
569,611	62550,47
569,805	62658,63
570	62522,43
570,195	62578,51
570,389	62560,49
570,584	62570,5
570,778	62602,55
570,973	62644,61
571,167	62594,54
571,362	62618,57
571,556	62624,58
571,751	62556,48
571,945	62552,48
572,139	62558,49
572,334	62626,58
572,528	62548,47
572,723	62572,51
572,917	62576,51
573,111	62592,53
573,306	62584,52
573,5	62574,51
573,694	62588,53
573,889	62560,49
574,083	62556,48
574,277	62574,51
574,472	62544,46
574,666	62574,51
574,86	62608,56
575,054	62618,57
575,249	62568,5
575,443	62626,58
575,637	62598,54
575,831	62636,6
576,025	62602,55
576,219	62660,63
576,414	62558,49
576,608	62620,58
576,802	62566,5
576,996	62662,64
577,19	62608,56
577,384	62624,58
577,578	62584,52
577,772	62596,54
577,966	62638,6
578,16	62586,53
578,354	62590,53
578,548	62514,42
578,742	62576,51
578,936	62624,58
579,13	62560,49
579,324	62600,55
579,518	62540,46
579,712	62590,53
579,906	62538,46
580,1	62618,57
580,294	62574,51
580,488	62534,45
580,682	62622,58
580,875	62636,6
581,069	62560,49
581,263	62568,5
581,457	62690,68
581,651	62586,53
581,845	62570,5
582,038	62622,58
582,232	62622,58
582,426	62642,61
582,62	62566,5
582,813	62530,44
583,007	62590,53
583,201	62590,53
583,394	62590,53
583,588	62520,43
583,782	62650,62
583,975	62622,58
584,169	62606,55
584,363	62618,57
584,556	62666,64
584,75	62568,5
584,943	62582,52
585,137	62614,57
585,33	62608,56
585,524	62576,51
585,718	62620,58
585,911	62626,58
586,105	62586,53
586,298	62542,46
586,491	62494,39
586,685	62546,47
586,878	62614,57
587,072	62634,6
587,265	62576,51
587,459	62570,5
587,652	62646,61
587,845	62584,52
588,039	62494,39
588,232	62536,45
588,426	62576,51
588,619	62550,47
588,812	62530,44
589,005	62586,53
589,199	62612,56
589,392	62562,49
589,585	62626,58
589,779	62598,54
589,972	62662,64
590,165	62598,54
590,358	62574,51
590,551	62568,5
590,745	62564,49
590,938	62598,54
591,131	62544,46
591,324	62550,47
591,517	62598,54
591,71	62590,53
591,904	62538,46
592,097	62616,57
592,29	62640,6
592,483	62528,44
592,676	62610,56
592,869	62604,55
593,062	62612,56
593,255	62602,55
593,448	62578,51
593,641	62656,63
593,834	62654,62
594,027	62512,42
594,22	62582,52
594,413	62582,52
594,606	62558,49
594,799	62602,55
594,992	62586,53
595,184	62598,54
595,377	62510,42
595,57	62572,51
595,763	62588,53
595,956	62564,49
596,149	62644,61
596,341	62658,63
596,534	62468,35
596,727	62584,52
596,92	62640,6
597,113	62606,55
597,305	62678,66
597,498	62570,5
597,691	62644,61
597,883	62606,55
598,076	62532,45
598,269	62570,5
598,462	62614,57
598,654	62658,63
598,847	62642,61
599,039	62580,52
599,232	62660,63
599,425	62554,48
599,617	62592,53
599,81	62582,52
600,002	62670,65
600,195	62612,56
600,387	62636,6
600,58	62586,53
600,772	62566,5
600,965	62514,42
601,157	62608,56
601,35	62596,54
601,542	62594,54
601,735	62574,51
601,927	62530,44
602,12	62514,42
602,312	62650,62
602,504	62538,46
602,697	62614,57
602,889	62582,52
603,082	62566,5
603,274	62586,53
603,466	62600,55
603,659	62620,58
603,851	62632,59
604,043	62550,47
604,235	62504,41
604,428	62638,6
604,62	62616,57
604,812	62590,53
605,004	62674,65
605,197	62578,51
605,389	62606,55
605,581	62592,53
605,773	62560,49
605,965	62610,56
606,157	62606,55
606,349	62556,48
606,542	62538,46
606,734	62576,51
606,926	62632,59
607,118	62652,62
607,31	62658,63
607,502	62624,58
607,694	62658,63
607,886	62578,51
608,078	62540,46
608,27	62582,52
608,462	62656,63
608,654	62622,58
608,846	62596,54
609,038	62514,42
609,23	62610,56
609,422	62572,51
609,614	62534,45
609,805	62618,57
609,997	62558,49
610,189	62526,44
610,381	62558,49
610,573	62582,52
610,765	62550,47
610,957	62562,49
611,148	62602,55
611,34	62586,53
611,532	62638,6
611,724	62622,58
611,915	62582,52
612,107	62566,5
612,299	62610,56
612,491	62574,51
612,682	62694,68
612,874	62560,49
613,066	62650,62
613,257	62574,51
613,449	62544,46
613,64	62644,61
613,832	62590,53
614,024	62614,57
614,215	62640,6
614,407	62646,61
614,598	62526,44
614,79	62646,61
614,981	62622,58
615,173	62586,53
615,364	62574,51
615,556	62514,42
615,747	62632,59
615,939	62606,55
616,13	62620,58
616,322	62652,62
616,513	62540,46
616,705	62500,4
616,896	62636,6
617,087	62602,55
617,279	62530,44
617,47	62594,54
617,661	62606,55
617,853	62558,49
618,044	62574,51
618,235	62562,49
618,427	62670,65
618,618	62578,51
618,809	62554,48
619	62584,52
619,192	62648,62
619,383	62626,58
619,574	62642,61
619,765	62550,47
619,957	62546,47
620,148	62616,57
620,339	62514,42
620,53	62566,5
620,721	62536,45
620,912	62590,53
621,103	62644,61
621,294	62592,53
621,485	62642,61
621,677	62600,55
621,868	62584,52
622,059	62646,61
622,25	62630,59
622,441	62532,45
622,632	62602,55
622,823	62606,55
623,014	62534,45
623,205	62606,55
623,395	62618,57
623,586	62624,58
623,777	62572,51
623,968	62576,51
624,159	62520,43
624,35	62614,57
624,541	62538,46
624,732	62566,5
624,923	62638,6
625,113	62562,49
625,304	62590,53
625,495	62608,56
625,686	62526,44
625,877	62596,54
626,067	62634,6
626,258	62562,49
626,449	62610,56
626,639	62640,6
626,83	62578,51
627,021	62652,62
627,211	62606,55
627,402	62574,51
627,593	62478,37
627,783	62578,51
627,974	62542,46
628,165	62474,36
628,355	62494,39
628,546	62604,55
628,736	62584,52
628,927	62602,55
629,117	62516,42
629,308	62590,53
629,498	62584,52
629,689	62566,5
629,879	62690,68
630,07	62538,46
630,26	62566,5
630,451	62604,55
630,641	62602,55
630,832	62582,52
631,022	62530,44
631,212	62638,6
631,403	62586,53
631,593	62654,62
631,784	62508,41
631,974	62586,53
632,164	62650,62
632,355	62582,52
632,545	62598,54
632,735	62588,53
632,925	62652,62
633,116	62574,51
633,306	62522,43
633,496	62616,57
633,686	62608,56
633,876	62618,57
634,067	62596,54
634,257	62590,53
634,447	62602,55
634,637	62546,47
634,827	62568,5
635,017	62482,37
635,208	62598,54
635,398	62630,59
635,588	62622,58
635,778	62526,44
635,968	62638,6
636,158	62640,6
636,348	62604,55
636,538	62590,53
636,728	62588,53
636,918	62584,52
637,108	62570,5
637,298	62528,44
637,488	62488,38
637,678	62570,5
637,868	62640,6
638,057	62566,5
638,247	62558,49
638,437	62466,35
638,627	62574,51
638,817	62626,58
639,007	62600,55
639,197	62578,51
639,386	62614,57
639,576	62550,47
639,766	62630,59
639,956	62622,58
640,145	62536,45
640,335	62600,55
640,525	62664,64
640,715	62610,56
640,904	62570,5
641,094	62564,49
641,284	62502,4
641,473	62578,51
641,663	62546,47
641,853	62540,46
642,042	62666,64
642,232	62566,5
642,421	62576,51
642,611	62554,48
642,801	62584,52
642,99	62630,59
643,18	62566,5
643,369	62622,58
643,559	62548,47
643,748	62618,57
643,938	62630,59
644,127	62556,48
644,317	62614,57
644,506	62614,57
644,695	62574,51
644,885	62594,54
645,074	62582,52
645,264	62598,54
645,453	62632,59
645,642	62628,59
645,832	62548,47
646,021	62638,6
646,21	62654,62
646,4	62592,53
646,589	62570,5
646,778	62646,61
646,967	62588,53
647,157	62590,53
647,346	62552,48
647,535	62572,51
647,724	62654,62
647,913	62596,54
648,103	62658,63
648,292	62586,53
648,481	62636,6
648,67	62602,55
648,859	62480,37
649,048	62630,59
649,237	62622,58
649,427	62594,54
649,616	62566,5
649,805	62656,63
649,994	62630,59
650,183	62548,47
650,372	62512,42
650,561	62596,54
650,75	62642,61
650,939	62552,48
651,128	62536,45
651,317	62542,46
651,506	62592,53
651,694	62580,52
651,883	62616,57
652,072	62558,49
652,261	62624,58
652,45	62568,5
652,639	62600,55
652,828	62578,51
653,016	62572,51
653,205	62596,54
653,394	62602,55
653,583	62570,5
653,772	62520,43
653,96	62576,51
654,149	62630,59
654,338	62592,53
654,527	62656,63
654,715	62588,53
654,904	62536,45
655,093	62544,46
655,281	62612,56
655,47	62508,41
655,658	62570,5
655,847	62552,48
656,036	62658,63
656,224	62616,57
656,413	62634,6
656,601	62520,43
656,79	62596,54
656,978	62626,58
657,167	62628,59
657,355	62624,58
657,544	62608,56
657,732	62632,59
657,921	62602,55
658,109	62510,42
658,298	62650,62
658,486	62558,49
658,675	62622,58
658,863	62688,67
659,051	62604,55
659,24	62528,44
659,428	62616,57
659,616	62656,63
659,805	62536,45
659,993	62572,51
660,181	62664,64
660,37	62542,46
660,558	62546,47
660,746	62610,56
660,934	62598,54
661,123	62614,57
661,311	62584,52
661,499	62608,56
661,687	62530,44
661,875	62584,52
662,064	62486,38
662,252	62612,56
662,44	62646,61
662,628	62576,51
662,816	62662,64
663,004	62534,45
663,192	62584,52
663,38	62598,54
663,568	62648,62
663,756	62552,48
663,944	62590,53
664,132	62590,53
664,32	62550,47
664,508	62590,53
664,696	62626,58
664,884	62644,61
665,072	62624,58
665,26	62602,55
665,448	62600,55
665,636	62576,51
665,824	62618,57
666,012	62582,52
666,199	62600,55
666,387	62624,58
666,575	62650,62
666,763	62592,53
666,951	62574,51
667,139	62606,55
667,326	62560,49
667,514	62504,41
667,702	62572,51
667,889	62570,5
668,077	62550,47
668,265	62486,38
668,453	62536,45
668,64	62578,51
668,828	62656,63
669,016	62576,51
669,203	62574,51
669,391	62634,6
669,578	62568,5
669,766	62568,5
669,954	62630,59
670,141	62620,58
670,329	62590,53
670,516	62550,47
670,704	62632,59
670,891	62664,64
671,079	62622,58
671,266	62622,58
671,454	62642,61
671,641	62564,49
671,828	62614,57
672,016	62544,46
672,203	62552,48
672,391	62596,54
672,578	62496,4
672,765	62556,48
672,953	62586,53
673,14	62526,44
673,327	62596,54
673,515	62614,57
673,702	62562,49
673,889	62518,43
674,077	62558,49
674,264	62632,59
674,451	62646,61
674,638	62468,35
674,825	62508,41
675,013	62630,59
675,2	62522,43
675,387	62556,48
675,574	62636,6
675,761	62646,61
675,948	62584,52
676,136	62636,6
676,323	62608,56
676,51	62582,52
676,697	62650,62
676,884	62584,52
677,071	62566,5
677,258	62570,5
677,445	62624,58
677,632	62560,49
677,819	62574,51
678,006	62648,62
678,193	62548,47
678,38	62598,54
678,567	62566,5
678,754	62570,5
678,94	62594,54
679,127	62608,56
679,314	62544,46
679,501	62626,58
679,688	62596,54
679,875	62600,55
680,062	62548,47
680,248	62662,64
680,435	62636,6
680,622	62598,54
680,809	62606,55
680,995	62558,49
681,182	62584,52
681,369	62492,39
681,556	62642,61
681,742	62524,44
681,929	62664,64
682,116	62566,5
682,302	62500,4
682,489	62612,56
682,675	62626,58
682,862	62542,46
683,049	62664,64
683,235	62618,57
683,422	62508,41
683,608	62640,6
683,795	62540,46
683,981	62618,57
684,168	62522,43
684,354	62596,54
684,541	62522,43
684,727	62560,49
684,914	62554,48
685,1	62644,61
685,287	62656,63
685,473	62578,51
685,659	62542,46
685,846	62674,65
686,032	62566,5
686,218	62572,51
686,405	62594,54
686,591	62628,59
686,777	62582,52
686,964	62598,54
687,15	62620,58
687,336	62554,48
687,522	62600,55
687,709	62616,57
687,895	62550,47
688,081	62590,53
688,267	62576,51
688,454	62584,52
688,64	62604,55
688,826	62582,52
689,012	62558,49
689,198	62560,49
689,384	62616,57
689,57	62546,47
689,756	62602,55
689,942	62526,44
690,128	62560,49
690,314	62582,52
690,501	62548,47
690,687	62648,62
690,873	62614,57
691,058	62596,54
691,244	62588,53
691,43	62618,57
691,616	62670,65
691,802	62618,57
691,988	62618,57
692,174	62662,64
692,36	62550,47
692,546	62576,51
692,732	62546,47
692,917	62558,49
693,103	62598,54
693,289	62606,55
693,475	62568,5
693,661	62516,42
693,846	62550,47
694,032	62612,56
694,218	62612,56
694,404	62540,46
694,589	62606,55
694,775	62616,57
694,961	62574,51
695,146	62540,46
695,332	62608,56
695,518	62564,49
695,703	62586,53
695,889	62592,53
696,074	62556,48
696,26	62502,4
696,446	62546,47
696,631	62622,58
696,817	62638,6
697,002	62592,53
697,188	62632,59
697,373	62632,59
697,559	62590,53
697,744	62590,53
697,93	62570,5
698,115	62614,57
698,3	62638,6
698,486	62578,51
698,671	62604,55
698,857	62598,54
699,042	62576,51
699,227	62560,49
699,413	62498,4
699,598	62486,38
699,783	62644,61
699,969	62530,44
700,154	62584,52
700,339	62596,54
700,524	62618,57
700,71	62638,6
700,895	62494,39
701,08	62642,61
701,265	62606,55
701,45	62666,64
701,636	62622,58
701,821	62546,47
702,006	62656,63
702,191	62570,5
702,376	62568,5
702,561	62494,39
702,746	62586,53
702,931	62590,53
703,116	62670,65
703,301	62572,51
703,486	62574,51
703,671	62696,69
703,856	62542,46
704,041	62594,54
704,226	62600,55
704,411	62528,44
704,596	62143,88
704,781	62574,51
704,966	62606,55
705,151	62596,54
705,336	62586,53
705,521	62526,44
705,706	62612,56
705,89	62542,46
706,075	62676,66
706,26	62638,6
706,445	62656,63
706,63	62504,41
706,814	62614,57
706,999	62642,61
707,184	62588,53
707,368	62564,49
707,553	62600,55
707,738	62606,55
707,923	62614,57
708,107	62566,5
708,292	62526,44
708,476	62522,43
708,661	62600,55
708,846	62572,51
709,03	62538,46
709,215	62566,5
709,399	62588,53
709,584	62606,55
709,768	62598,54
709,953	62570,5
710,137	62642,61
710,322	62586,53
710,506	62578,51
710,691	62522,43
710,875	62574,51
711,06	62638,6
711,244	62616,57
711,429	62518,43
711,613	62534,45
711,797	62676,66
711,982	62624,58
712,166	62618,57
712,35	62504,41
712,535	62590,53
712,719	62544,46
712,903	62594,54
713,088	62616,57
713,272	62570,5
713,456	62606,55
713,64	62508,41
713,824	62572,51
714,009	62642,61
714,193	62560,49
714,377	62630,59
714,561	62608,56
714,745	62582,52
714,929	62582,52
715,113	62592,53
715,298	62580,52
715,482	62558,49
715,666	62582,52
715,85	62638,6
716,034	62612,56
716,218	62630,59
716,402	62518,43
716,586	62682,67
716,77	62582,52
716,954	62630,59
717,138	62574,51
717,322	62604,55
717,506	62560,49
717,689	62612,56
717,873	62626,58
718,057	62574,51
718,241	62506,41
718,425	62678,66
718,609	62560,49
718,793	62598,54
718,976	62582,52
719,16	62594,54
719,344	62564,49
719,528	62552,48
719,711	62624,58
719,895	62588,53
720,079	62598,54
720,263	62614,57
720,446	62652,62
720,63	62534,45
720,814	62540,46
720,997	62510,42
721,181	62618,57
721,364	62624,58
721,548	62550,47
721,732	62550,47
721,915	62630,59
722,099	62674,65
722,282	62610,56
722,466	62510,42
722,649	62588,53
722,833	62574,51
723,016	62558,49
723,2	62614,57
723,383	62602,55
723,567	62630,59
723,75	62566,5
723,934	62474,36
724,117	62550,47
724,3	62518,43
724,484	62582,52
724,667	62574,51
724,85	62640,6
725,034	62614,57
725,217	62612,56
725,4	62622,58
725,584	62660,63
725,767	62600,55
725,95	62710,71
726,133	62534,45
726,317	62624,58
726,5	62594,54
726,683	62614,57
726,866	62624,58
727,049	62624,58
727,232	62666,64
727,416	62592,53
727,599	62650,62
727,782	62570,5
727,965	62610,56
728,148	62664,64
728,331	62638,6
728,514	62610,56
728,697	62550,47
728,88	62582,52
729,063	62562,49
729,246	62600,55
729,429	62552,48
729,612	62574,51
729,795	62580,52
729,978	62654,62
730,161	62710,71
730,344	62582,52
730,526	62606,55
730,709	62578,51
730,892	62562,49
731,075	62616,57
731,258	62568,5
731,441	62610,56
731,623	62630,59
731,806	62584,52
731,989	62582,52
732,172	62478,37
732,354	62570,5
732,537	62662,64
732,72	62586,53
732,903	62566,5
733,085	62566,5
733,268	62658,63
733,451	62638,6
733,633	62648,62
733,816	62690,68
733,998	62650,62
734,181	62470,36
734,364	62598,54
734,546	62574,51
734,729	62634,6
734,911	62580,52
735,094	62590,53
735,276	62612,56
735,459	62592,53
735,641	62552,48
735,824	62542,46
736,006	62650,62
736,188	62630,59
736,371	62670,65
736,553	62654,62
736,736	62602,55
736,918	62588,53
737,1	62578,51
737,283	62576,51
737,465	62568,5
737,647	62562,49
737,83	62570,5
738,012	62554,48
738,194	62622,58
738,376	62638,6
738,559	62578,51
738,741	62594,54
738,923	62602,55
739,105	62542,46
739,287	62566,5
739,469	62596,54
739,652	62638,6
739,834	62590,53
740,016	62578,51
740,198	62586,53
740,38	62664,64
740,562	62574,51
740,744	62552,48
740,926	62560,49
741,108	62614,57
741,29	62656,63
741,472	62486,38
741,654	62478,37
741,836	62492,39
742,018	62560,49
742,2	62614,57
742,382	62568,5
742,564	62556,48
742,746	62604,55
742,928	62566,5
743,109	62600,55
743,291	62596,54
743,473	62510,42
743,655	62552,48
743,837	62620,58
744,019	62624,58
744,2	62558,49
744,382	62568,5
744,564	62534,45
744,746	62594,54
744,927	62648,62
745,109	62506,41
745,291	62550,47
745,472	62516,42
745,654	62602,55
745,836	62538,46
746,017	62682,67
746,199	62566,5
746,38	62582,52
746,562	62642,61
746,744	62604,55
746,925	62614,57
747,107	62670,65
747,288	62566,5
747,47	62594,54
747,651	62606,55
747,833	62530,44
748,014	62674,65
748,195	62636,6
748,377	62646,61
748,558	62590,53
748,74	62624,58
748,921	62534,45
749,102	62608,56
749,284	62632,59
749,465	62650,62
749,646	62624,58
749,828	62594,54
750,009	62706,7
750,19	62522,43
750,372	62674,65
750,553	62614,57
750,734	62646,61
750,915	62594,54
751,096	62608,56
751,278	62556,48
751,459	62636,6
751,64	62624,58
751,821	62610,56
752,002	62628,59
752,183	62632,59
752,364	62636,6
752,546	62632,59
752,727	62628,59
752,908	62608,56
753,089	62530,44
753,27	62664,64
753,451	62600,55
753,632	62580,52
753,813	62646,61
753,994	62618,57
754,175	62670,65
754,356	62530,44
754,536	62576,51
754,717	62594,54
754,898	62676,66
755,079	62614,57
755,26	62632,59
755,441	62648,62
755,622	62662,64
755,802	62602,55
755,983	62510,42
756,164	62650,62
756,345	62598,54
756,526	62646,61
756,706	62646,61
756,887	62658,63
757,068	62732,74
757,248	62576,51
757,429	62602,55
757,61	62548,47
757,79	62706,7
757,971	62644,61
758,152	62568,5
758,332	62630,59
758,513	62598,54
758,693	62618,57
758,874	62594,54
759,055	62614,57
759,235	62542,46
759,416	62592,53
759,596	62558,49
759,777	62626,58
759,957	62558,49
760,137	62554,48
760,318	62576,51
760,498	62568,5
760,679	62642,61
760,859	62630,59
761,039	62568,5
761,22	62614,57
761,4	62680,66
761,581	62568,5
761,761	62552,48
761,941	62652,62
762,121	62518,43
762,302	62566,5
762,482	62542,46
762,662	62606,55
762,842	62578,51
763,023	62562,49
763,203	62518,43
763,383	62584,52
763,563	62640,6
763,743	62538,46
763,923	62598,54
764,104	62614,57
764,284	62610,56
764,464	62536,45
764,644	62566,5
764,824	62546,47
765,004	62602,55
765,184	62520,43
765,364	62628,59
765,544	62626,58
765,724	62606,55
765,904	62572,51
766,084	62586,53
766,264	62622,58
766,444	62540,46
766,624	62586,53
766,804	62598,54
766,983	62654,62
767,163	62586,53
767,343	62594,54
767,523	62628,59
767,703	62634,6
767,883	62658,63
768,062	62622,58
768,242	62542,46
768,422	62610,56
768,602	62562,49
768,781	62598,54
768,961	62606,55
769,141	62542,46
769,32	62556,48
769,5	62518,43
769,68	62562,49
769,859	62566,5
770,039	62634,6
770,219	62622,58
770,398	62526,44
770,578	62546,47
770,757	62606,55
770,937	62638,6
771,116	62562,49
771,296	62574,51
771,475	62632,59
771,655	62568,5
771,834	62532,45
772,014	62540,46
772,193	62668,64
772,373	62590,53
772,552	62586,53
772,731	62626,58
772,911	62600,55
773,09	62546,47
773,269	62594,54
773,449	62598,54
773,628	62622,58
773,807	62602,55
773,987	62530,44
774,166	62614,57
774,345	62648,62
774,524	62526,44
774,704	62568,5
774,883	62648,62
775,062	62374,22
775,241	62648,62
775,42	62580,52
775,6	62640,6
775,779	62610,56
775,958	62564,49
776,137	62534,45
776,316	62582,52
776,495	62604,55
776,674	62594,54
776,853	62648,62
777,032	62554,48
777,211	62596,54
777,39	62578,51
777,569	62568,5
777,748	62564,49
777,927	62556,48
778,106	62612,56
778,285	62548,47
778,464	62646,61
778,643	62566,5
778,822	62600,55
779	62570,5
779,179	62564,49
779,358	62644,61
779,537	62582,52
779,716	62626,58
779,894	62526,44
780,073	62568,5
780,252	62642,61
780,431	62550,47
780,609	62580,52
780,788	62614,57
780,967	62550,47
781,145	62550,47
781,324	62622,58
781,503	62652,62
781,681	62618,57
781,86	62584,52
782,039	62572,51
782,217	62650,62
782,396	62594,54
782,574	62570,5
782,753	62640,6
782,931	62542,46
783,11	62596,54
783,288	62572,51
783,467	62612,56
783,645	62588,53
783,824	62632,59
784,002	62536,45
784,18	62598,54
784,359	62508,41
784,537	62546,47
784,716	62562,49
784,894	62560,49
785,072	62512,42
785,251	62600,55
785,429	62678,66
785,607	62576,51
785,785	62602,55
785,964	62600,55
786,142	62568,5
786,32	62668,64
786,498	62596,54
786,677	62640,6
786,855	62570,5
787,033	62582,52
787,211	62588,53
787,389	62646,61
787,567	62576,51
787,745	62642,61
787,923	62574,51
788,102	62544,46
788,28	62588,53
788,458	62658,63
788,636	62606,55
788,814	62568,5
788,992	62628,59
789,17	62542,46
789,348	62522,43
789,526	62612,56
789,703	62594,54
789,881	62568,5
790,059	62602,55
790,237	62552,48
790,415	62570,5
790,593	62614,57
790,771	62586,53
790,949	62646,61
791,126	62610,56
791,304	62652,62
791,482	62566,5
791,66	62562,49
791,837	62672,65
792,015	62582,52
792,193	62550,47
792,371	62658,63
792,548	62546,47
792,726	62616,57
792,904	62504,41
793,081	62622,58
793,259	62514,42
793,436	62578,51
793,614	62620,58
793,792	62530,44
793,969	62590,53
794,147	62566,5
794,324	62564,49
794,502	62534,45
794,679	62594,54
794,857	62598,54
795,034	62580,52
795,212	62602,55
795,389	62556,48
795,567	62546,47
795,744	62582,52
795,921	62580,52
796,099	62530,44
796,276	62590,53
796,453	62630,59
796,631	62544,46
796,808	62548,47
796,985	62562,49
797,163	62662,64
797,34	62594,54
797,517	62630,59
797,694	62558,49
797,872	62552,48
798,049	62602,55
798,226	62534,45
798,403	62578,51
798,58	62648,62
798,757	62552,48
798,935	62608,56
799,112	62544,46
799,289	62606,55
799,466	62496,4
799,643	62614,57
799,82	62654,62
799,997	62622,58
800,174	62608,56
800,351	62560,49
800,528	62622,58
800,705	62650,62
800,882	62578,51
801,059	62566,5
801,236	62580,52
801,413	62604,55
801,589	62570,5
801,766	62612,56
801,943	62602,55
802,12	62672,65
802,297	62664,64
802,474	62616,57
802,651	62576,51
802,827	62576,51
803,004	62642,61
803,181	62632,59
803,358	62602,55
803,534	62658,63
803,711	62568,5
803,888	62500,4
804,064	62650,62
804,241	62534,45
804,418	62566,5
804,594	62554,48
804,771	62566,5
804,947	62650,62
805,124	62586,53
805,301	62580,52
805,477	62576,51
805,654	62568,5
805,83	62592,53
806,007	62538,46
806,183	62576,51
806,36	62600,55
806,536	62550,47
806,712	62550,47
806,889	62598,54
807,065	62616,57
807,242	62506,41
807,418	62566,5
807,594	62634,6
807,771	62584,52
807,947	62588,53
808,123	62602,55
808,3	62610,56
808,476	62614,57
808,652	62544,46
808,829	62570,5
809,005	62586,53
809,181	62606,55
809,357	62658,63
809,533	62630,59
809,71	62662,64
809,886	62632,59
810,062	62624,58
810,238	62582,52
810,414	62634,6
810,59	62618,57
810,766	62632,59
810,942	62520,43
811,118	62582,52
811,294	62612,56
811,47	62552,48
811,646	62614,57
811,822	62588,53
811,998	62600,55
812,174	62510,42
812,35	62578,51
812,526	62602,55
812,702	62542,46
812,878	62526,44
813,054	62538,46
813,23	62530,44
813,405	62634,6
813,581	62534,45
813,757	62642,61
813,933	62626,58
814,109	62646,61
814,284	62638,6
814,46	62548,47
814,636	62638,6
814,812	62550,47
814,987	62618,57
815,163	62690,68
815,339	62494,39
815,514	62578,51
815,69	62586,53
815,866	62610,56
816,041	62630,59
816,217	62530,44
816,392	62608,56
816,568	62640,6
816,743	62546,47
816,919	62668,64
817,094	62536,45
817,27	62568,5
817,445	62618,57
817,621	62632,59
817,796	62660,63
817,972	62588,53
818,147	62508,41
818,322	62488,38
818,498	62604,55
818,673	62536,45
818,849	62606,55
819,024	62558,49
819,199	62572,51
819,375	62614,57
819,55	62584,52
819,725	62574,51
819,9	62570,5
820,076	62626,58
820,251	62632,59
820,426	62598,54
820,601	62624,58
820,776	62562,49
820,952	62610,56
821,127	62628,59
821,302	62638,6
821,477	62570,5
821,652	62680,66
821,827	62524,44
822,002	62604,55
822,177	62582,52
822,352	62558,49
822,527	62548,47
822,702	62530,44
822,877	62504,41
823,052	62588,53
823,227	62558,49
823,402	62610,56
823,577	62600,55
823,752	62614,57
823,927	62568,5
824,102	62604,55
824,277	62556,48
824,451	62618,57
824,626	62520,43
824,801	62528,44
824,976	62684,67
825,151	62602,55
825,325	62584,52
825,5	62616,57
825,675	62658,63
825,85	62650,62
826,024	62640,6
826,199	62614,57
826,374	62548,47
826,548	62562,49
826,723	62590,53
826,897	62656,63
827,072	62512,42
827,247	62638,6
827,421	62602,55
827,596	62622,58
827,77	62562,49
827,945	62600,55
828,119	62570,5
828,294	62586,53
828,468	62624,58
828,643	62558,49
828,817	62574,51
828,992	62578,51
829,166	62592,53
829,34	62646,61
829,515	62670,65
829,689	62616,57
829,864	62612,56
830,038	62638,6
830,212	62552,48
830,386	62626,58
830,561	62582,52
830,735	62544,46
830,909	62560,49
831,084	62574,51
831,258	62612,56
831,432	62590,53
831,606	62568,5
831,78	62568,5
831,954	62662,64
832,129	62636,6
832,303	62590,53
832,477	62582,52
832,651	62622,58
832,825	62554,48
832,999	62552,48
833,173	62664,64
833,347	62528,44
833,521	62594,54
833,695	62514,42
833,869	62524,44
834,043	62632,59
834,217	62618,57
834,391	62588,53
834,565	62504,41
834,739	62562,49
834,913	62650,62
835,086	62616,57
835,26	62650,62
835,434	62620,58
835,608	62606,55
835,782	62632,59
835,956	62592,53
836,129	62648,62
836,303	62566,5
836,477	62598,54
836,651	62546,47
836,824	62502,4
836,998	62618,57
837,172	62606,55
837,345	62638,6
837,519	62612,56
837,693	62640,6
837,866	62596,54
838,04	62530,44
838,213	62474,36
838,387	62570,5
838,56	62586,53
838,734	62606,55
838,907	62614,57
839,081	62690,68
839,254	62614,57
839,428	62560,49
839,601	62600,55
839,775	62540,46
839,948	62616,57
840,122	62562,49
840,295	62614,57
840,468	62542,46
840,642	62632,59
840,815	62614,57
840,988	62552,48
841,162	62604,55
841,335	62632,59
841,508	62622,58
841,682	62656,63
841,855	62600,55
842,028	62550,47
842,201	62606,55
842,374	62632,59
842,548	62626,58
842,721	62534,45
842,894	62552,48
843,067	62640,6
843,24	62508,41
843,413	62548,47
843,586	62662,64
843,759	62582,52
843,932	62570,5
844,105	62544,46
844,278	62626,58
844,451	62630,59
844,624	62570,5
844,797	62590,53
844,97	62576,51
845,143	62480,37
845,316	62600,55
845,489	62590,53
845,662	62606,55
845,835	62564,49
846,008	62606,55
846,18	62560,49
846,353	62592,53
846,526	62606,55
846,699	62676,66
846,872	62558,49
847,044	62612,56
847,217	62552,48
847,39	62568,5
847,563	62624,58
847,735	62624,58
847,908	62566,5
848,081	62518,43
848,253	62552,48
848,426	62632,59
848,598	62590,53
848,771	62586,53
848,944	62560,49
849,116	62604,55
849,289	62592,53
849,461	62612,56
849,634	62544,46
849,806	62564,49
849,979	62622,58
850,151	62636,6
850,324	62598,54
850,496	62556,48
850,668	62526,44
850,841	62600,55
851,013	62564,49
851,186	62586,53
851,358	62622,58
851,53	62582,52
851,703	62640,6
851,875	62556,48
852,047	62618,57
852,219	62476,37
852,392	62616,57
852,564	62586,53
852,736	62548,47
852,908	62676,66
853,081	62562,49
853,253	62540,46
853,425	62592,53
853,597	62604,55
853,769	62600,55
853,941	62568,5
854,113	62544,46
854,285	62606,55
854,457	62558,49
854,63	62510,42
854,802	62582,52
854,974	62616,57
855,146	62594,54
855,318	62608,56
855,489	62602,55
855,661	62666,64
855,833	62584,52
856,005	62578,51
856,177	62510,42
856,349	62588,53
856,521	62552,48
856,693	62530,44
856,865	62610,56
857,036	62624,58
857,208	62578,51
857,38	62558,49
857,552	62632,59
857,723	62534,45
857,895	62622,58
858,067	62584,52
858,239	62602,55
858,41	62634,6
858,582	62542,46
858,754	62654,62
858,925	62542,46
859,097	62558,49
859,268	62552,48
859,44	62580,52
859,612	62536,45
859,783	62586,53
859,955	62554,48
860,126	62570,5
860,298	62584,52
860,469	62582,52
860,641	62542,46
860,812	62600,55
860,983	62596,54
861,155	62588,53
861,326	62626,58
861,498	62610,56
861,669	62588,53
861,84	62666,64
862,012	62578,51
862,183	62556,48
862,354	62588,53
862,526	62600,55
862,697	62524,44
862,868	62528,44
863,039	62572,51
863,211	62566,5
863,382	62598,54
863,553	62610,56
863,724	62606,55
863,895	62632,59
864,066	62674,65
864,238	62622,58
864,409	62614,57
864,58	62478,37
864,751	62618,57
864,922	62556,48
865,093	62616,57
865,264	62642,61
865,435	62650,62
865,606	62574,51
865,777	62608,56
865,948	62542,46
866,119	62578,51
866,29	62590,53
866,461	62574,51
866,632	62554,48
866,802	62614,57
866,973	62610,56
867,144	62562,49
867,315	62530,44
867,486	62514,42
867,657	62508,41
867,827	62584,52
867,998	62584,52
868,169	62566,5
868,34	62582,52
868,51	62618,57
868,681	62606,55
868,852	62552,48
869,022	62640,6
869,193	62618,57
869,364	62604,55
869,534	62634,6
869,705	62598,54
869,875	62574,51
870,046	62578,51
870,217	62560,49
870,387	62672,65
870,558	62540,46
870,728	62560,49
870,899	62532,45
871,069	62580,52
871,239	62640,6
871,41	62568,5
871,58	62618,57
871,751	62650,62
871,921	62602,55
872,091	62552,48
872,262	62570,5
872,432	62628,59
872,602	62466,35
872,773	62586,53
872,943	62532,45
873,113	62642,61
873,284	62536,45
873,454	62528,44
873,624	62598,54
873,794	62596,54
873,964	62654,62
874,135	62566,5
874,305	62632,59
874,475	62604,55
874,645	62546,47
874,815	62560,49
874,985	62560,49
875,155	62622,58
875,325	62602,55
875,495	62608,56
875,665	62574,51
875,835	62616,57
876,005	62532,45
876,175	62634,6
876,345	62578,51
876,515	62542,46
876,685	62622,58
876,855	62614,57
877,025	62638,6
877,195	62590,53
877,365	62614,57
877,534	62622,58
877,704	62532,45
877,874	62662,64
878,044	62594,54
878,214	62538,46
878,383	62528,44
878,553	62632,59
878,723	62562,49
878,892	62620,58
879,062	62630,59
879,232	62548,47
879,401	62546,47
879,571	62614,57
879,741	62538,46
879,91	62522,43
880,08	62632,59
880,249	62644,61
880,419	62554,48
880,589	62536,45
880,758	62542,46
880,928	62616,57
881,097	62602,55
881,267	62596,54
881,436	62534,45
881,605	62626,58
881,775	62496,4
881,944	62602,55
882,114	62548,47
882,283	62554,48
882,452	62562,49
882,622	62594,54
882,791	62506,41
882,96	62530,44
883,13	62538,46
883,299	62576,51
883,468	62580,52
883,637	62588,53
883,807	62612,56
883,976	62504,41
884,145	62622,58
884,314	62652,62
884,483	62592,53
884,652	62600,55
884,822	62540,46
884,991	62624,58
885,16	62616,57
885,329	62506,41
885,498	62594,54
885,667	62532,45
885,836	62568,5
886,005	62582,52
886,174	62622,58
886,343	62578,51
886,512	62592,53
886,681	62590,53
886,85	62588,53
887,019	62598,54
887,187	62538,46
887,356	62582,52
887,525	62574,51
887,694	62566,5
887,863	62626,58
888,032	62578,51
888,2	62600,55
888,369	62588,53
888,538	62598,54
888,707	62566,5
888,875	62566,5
889,044	62616,57
889,213	62662,64
889,381	62554,48
889,55	62508,41
889,719	62552,48
889,887	62622,58
890,056	62602,55
890,224	62578,51
890,393	62606,55
890,562	62634,6
890,73	62618,57
890,899	62566,5
891,067	62632,59
891,236	62568,5
891,404	62584,52
891,573	62524,44
891,741	62544,46
891,909	62640,6
892,078	62520,43
892,246	62574,51
892,415	62632,59
892,583	62566,5
892,751	62554,48
892,92	62572,51
893,088	62534,45
893,256	62626,58
893,424	62568,5
893,593	62572,51
893,761	62560,49
893,929	62618,57
894,097	62620,58
894,265	62534,45
894,434	62550,47
894,602	62574,51
894,77	62572,51
894,938	62562,49
895,106	62660,63
895,274	62576,51
895,442	62618,57
895,61	62606,55
895,778	62578,51
895,946	62600,55
896,114	62572,51
896,282	62554,48
896,45	62618,57
896,618	62628,59
896,786	62496,4
896,954	62558,49
897,122	62510,42
897,29	62554,48
897,458	62574,51
897,625	62526,44
897,793	62640,6
897,961	62588,53
898,129	62512,42
898,297	62550,47
898,464	62642,61
898,632	62570,5
898,8	62608,56
898,968	62578,51
899,135	62614,57
899,303	62680,66
899,471	62608,56
899,638	62520,43
899,806	62600,55
899,973	62636,6
900,141	62540,46
900,309	62614,57
900,476	62558,49
900,644	62630,59
900,811	62564,49
900,979	62650,62
901,146	62526,44
901,314	62552,48
901,481	62568,5
901,649	62590,53
901,816	62598,54
901,983	62574,51
902,151	62566,5
