Data from Subt6__1__15-57-27-603.txt Node

Date: Thu Feb 19 15:57:27 CET 2026
User: Versuch 234
Spectrometer: USB4F05580
Trigger mode: 4
Integration Time (sec): 4,000000E0
Scans to average: 20
Electric dark correction enabled: true
Nonlinearity correction enabled: false
Boxcar width: 0
XAxis mode: Wavelengths
Number of Pixels in Spectrum: 3648
>>>>>Begin Spectral Data<<<<<
197,409	-1778,67
197,623	-1778,67
197,837	-1778,67
198,051	-1855,28
198,265	-1833,05
198,479	1120,03
198,693	76,82
198,907	-279,5
199,122	-352,2
199,336	189,98
199,55	450,96
199,763	-663,85
199,977	835,42
200,191	567,43
200,405	7,62
200,619	-1081,06
200,833	-871,66
201,047	447,06
201,261	1645,79
201,475	743,29
201,689	1174,11
201,903	2766,72
202,117	4382,76
202,331	1256,23
202,545	1342,55
202,758	2588,46
202,972	3134,45
203,186	3065,55
203,4	1848,49
203,614	2238,25
203,828	1902,97
204,041	1077,37
204,255	1768,27
204,469	1931,01
204,683	1910,98
204,897	1042,42
205,11	1145,17
205,324	2218,92
205,538	3758,86
205,752	1490,07
205,965	651,15
206,179	1777,38
206,393	3175,21
206,606	1875,53
206,82	1347,86
207,034	3137,36
207,248	2498,03
207,461	1254,73
207,675	1000,26
207,889	2169,85
208,102	2304,15
208,316	1824,95
208,529	993,35
208,743	2416,61
208,957	2407,9
209,17	1645,29
209,384	1377,61
209,597	1811,13
209,811	2367,24
210,025	2306,05
210,238	1223,48
210,452	2822,2
210,665	2064,1
210,879	1486,86
211,092	716,45
211,306	2679,09
211,519	2129,4
211,733	874,88
211,946	1252,12
212,16	2014,53
212,373	2317,87
212,587	2116,58
212,8	1270,85
213,014	1840,68
213,227	2310,46
213,44	1330,14
213,654	1156,48
213,867	2167,75
214,081	2241,96
214,294	914,23
214,507	1071,86
214,721	1800,62
214,934	2130
215,148	1631,57
215,361	1322,23
215,574	1817,44
215,788	2645,64
216,001	1246,52
216,214	1100
216,428	1903,07
216,641	2010,52
216,854	1173,51
217,067	1088,49
217,281	2249,07
217,494	2730,57
217,707	1182,22
217,92	1678,64
218,134	2498,83
218,347	1792,51
218,56	1761,16
218,773	1035,31
218,986	2184,88
219,2	2014,53
219,413	907,12
219,626	1464,43
219,839	2281,62
220,052	2723,66
220,265	888,4
220,479	1592,32
220,692	2720,35
220,905	1646,9
221,118	2412,71
221,331	1543,05
221,544	3602,73
221,757	2241,86
221,97	1861,51
222,183	1771,18
222,396	2356,52
222,609	3591,92
222,822	3036,61
223,035	2545,8
223,249	2442,75
223,462	2683,4
223,675	974,02
223,887	920,14
224,1	2304,55
224,313	2218,82
224,526	1011,78
224,739	652,05
224,952	2484,21
225,165	2474,09
225,378	1981,78
225,591	2140,41
225,804	3566,38
226,017	2512,15
226,23	2777,63
226,443	1423,17
226,656	2613
226,868	2472,19
227,081	1370,7
227,294	1717
227,507	2203
227,72	3208,26
227,933	1499,38
228,145	1558,57
228,358	2989,04
228,571	2049,68
228,784	1209,16
228,997	1675,64
229,209	2324,48
229,422	2654,46
229,635	1016,78
229,848	1768,57
230,06	2578,55
230,273	1924
230,486	1440,6
230,698	1537,64
230,911	2091,24
231,124	2317,37
231,336	1457,72
231,549	2376,75
231,762	2109,67
231,974	2591,57
232,187	1532,83
232,4	1172,41
232,612	2236,65
232,825	1689,86
233,038	749,59
233,25	2469,59
233,463	2475,6
233,675	2681,5
233,888	1626,97
234,1	1089,99
234,313	2343,1
234,526	2122,79
234,738	955,59
234,951	1542,54
235,163	2563,12
235,376	2930,96
235,588	1904,27
235,801	1749,74
236,013	2563,82
236,226	2274,91
236,438	2924,95
236,65	1991,6
236,863	2303,35
237,075	2201,3
237,288	1118,03
237,5	1510,9
237,713	2127,49
237,925	3151,28
238,137	1943,13
238,35	1861,91
238,562	2250,37
238,774	2104,46
238,987	1491,07
239,199	1251,32
239,411	2518,46
239,624	2480,4
239,836	1715,19
240,048	1143,97
240,261	2168,25
240,473	3294,78
240,685	1533,13
240,897	1836,47
241,11	2855,65
241,322	2735,87
241,534	1456,42
241,746	1618,35
241,959	2092,44
242,171	2832,11
242,383	1859,6
242,595	1707,68
242,807	1994,9
243,02	2291,93
243,232	1650,5
243,444	1907,77
243,656	2305,85
243,868	2760,71
244,08	1615,75
244,293	1470,14
244,505	3815,24
244,717	2684,7
244,929	1174,71
245,141	1653,41
245,353	2831,51
245,565	2572,24
245,777	1803,32
245,989	2084,03
246,201	2968,61
246,413	2321,47
246,625	2045,67
246,837	1490,87
247,049	2378,96
247,261	2797,86
247,473	2158,14
247,685	2178,97
247,897	2101,55
248,109	2502,14
248,321	1570,89
248,533	1404,94
248,745	2941,37
248,957	3843,18
249,169	1631,07
249,381	1597,82
249,593	2973,02
249,804	3076,87
250,016	1707,98
250,228	1348,46
250,44	2153,53
250,652	2718,65
250,864	1316,12
251,075	2698,32
251,287	3235,6
251,499	3906,17
251,711	1677,24
251,923	1409,35
252,134	3247,92
252,346	2842,93
252,558	1809,93
252,77	2576,54
252,982	3278,16
253,193	2982,93
253,405	1948,53
253,617	2917,64
253,828	2607,09
254,04	2850,04
254,252	1913,78
254,463	2192,69
254,675	3773,28
254,887	2956,49
255,098	2485,61
255,31	1914,28
255,522	3192,04
255,733	3775,38
255,945	2458,97
256,157	2048,58
256,368	3377,5
256,58	4359,73
256,791	2256,38
257,003	3439,29
257,214	3360,98
257,426	3865,71
257,637	3011,37
257,849	2573,74
258,061	5001,26
258,272	3871,42
258,484	3141,06
258,695	3966,66
258,907	4631,92
259,118	3995,8
259,329	3097,8
259,541	3210,56
259,752	4492,12
259,964	4934,96
260,175	3184,02
260,387	3427,98
260,598	6076,12
260,809	4033,15
261,021	4315,36
261,232	3420,07
261,444	4410,2
261,655	4278,31
261,866	3349,56
262,078	3521,61
262,289	5262,24
262,5	4580,95
262,712	4033,66
262,923	4015,13
263,134	4678,49
263,345	4926,45
263,557	3457,52
263,768	3680,44
263,979	4437,74
264,191	4511,55
264,402	3820,95
264,613	3373,1
264,824	4834,82
265,035	5283,07
265,247	3874,63
265,458	4203,6
265,669	4552,41
265,88	4998,55
266,091	4876,48
266,302	3351,67
266,514	4941,47
266,725	4688,91
266,936	3684,85
267,147	4659,86
267,358	4575,94
267,569	4173,76
267,78	4284,32
267,991	4145,82
268,202	4928,75
268,414	5728,81
268,625	3558,97
268,836	3781,29
269,047	4983,73
269,258	4709,74
269,469	3607,94
269,68	4657,16
269,891	4854,14
270,102	5537,54
270,313	4454,27
270,524	4064,3
270,735	5100,2
270,945	5053,73
271,156	4773,63
271,367	4711,54
271,578	5151,68
271,789	5151,08
272	4298,94
272,211	4141,41
272,422	5146,37
272,633	5220,68
272,844	4550,3
273,054	4572,74
273,265	5376
273,476	5750,54
273,687	3948,63
273,898	3946,93
274,109	5228,29
274,319	5557,26
274,53	4833,52
274,741	4027,65
274,952	5600,83
275,162	5443,5
275,373	4538,39
275,584	4075,72
275,795	5230,69
276,005	5592,82
276,216	5103,51
276,427	3970,76
276,637	5234,5
276,848	5218,57
277,059	3933,71
277,269	5098,9
277,48	5108,11
277,691	6132,3
277,901	5403,04
278,112	4545,5
278,323	5163,39
278,533	4848,54
278,744	4766,62
278,954	4112,57
279,165	5464,43
279,376	5048,23
279,586	5269,75
279,797	4161,44
280,007	5052,33
280,218	5499,68
280,428	4109,67
280,639	4914,23
280,849	5803,82
281,06	5484,26
281,27	5010,47
281,481	4108,86
281,691	5310,71
281,902	5199,85
282,112	5356,67
282,322	5083,08
282,533	5761,76
282,743	5828,36
282,954	5425,27
283,164	4977,92
283,374	5876,63
283,585	6113,67
283,795	5535,63
284,006	5250,42
284,216	5403,64
284,426	6056,09
284,637	5345,56
284,847	4923,95
285,057	5900,76
285,268	6918,44
285,478	4569,33
285,688	5056,44
285,898	6111,57
286,109	5563,67
286,319	5266,94
286,529	5170
286,739	5092,19
286,95	4731,77
287,16	4204,4
287,37	5314,31
287,58	4451,06
287,79	4608,69
288,001	4427,63
288,211	3266,54
288,421	4629,52
288,631	4417,31
288,841	3964,46
289,051	3269,65
289,261	3939,82
289,471	3779,29
289,682	3464,13
289,892	3753,65
290,102	3682,55
290,312	3770,57
290,522	2925,55
290,732	3144,87
290,942	3703,68
291,152	3969,46
291,362	2893,8
291,572	2921,04
291,782	4504,04
291,992	3377,2
292,202	2105,36
292,412	4294,13
292,622	2792,76
292,832	3430,48
293,042	2513,95
293,252	1900,56
293,462	2479,6
293,672	3027,4
293,881	2325,78
294,091	2521,06
294,301	3609,14
294,511	3157,19
294,721	2156,94
294,931	2601,58
295,141	3186,03
295,35	2898,91
295,56	3805,12
295,77	2842,93
295,98	3485,76
296,19	2724,36
296,4	2527,27
296,609	2695,62
296,819	3830,46
297,029	2591,67
297,239	2793,96
297,448	2031,65
297,658	2795,96
297,868	3042,52
298,077	3056,64
298,287	3280,96
298,497	4166,55
298,706	3113,02
298,916	2644,24
299,126	1996,6
299,335	2655,66
299,545	4248,87
299,755	2794,86
299,964	2165,95
300,174	3051,23
300,384	2561,72
300,593	2676,69
300,803	2532,58
301,012	3966,46
301,222	2946,38
301,431	2191,79
301,641	2823,1
301,851	2456,47
302,06	2643,24
302,27	2618,3
302,479	2793,56
302,689	2873,47
302,898	3636,08
303,107	2821,6
303,317	3073,66
303,526	4433,74
303,736	3683,85
303,945	4636,23
304,155	3090,79
304,364	3952,74
304,574	4501,23
304,783	3344,66
304,992	3506,79
305,202	4864,96
305,411	3655,41
305,62	2994,55
305,83	3506,99
306,039	6923,34
306,248	3264,24
306,458	2664,57
306,667	2801,97
306,876	2866,46
307,086	4390,77
307,295	3474,14
307,504	2608,89
307,713	2685,5
307,923	2742,78
308,132	2889,5
308,341	2868,87
308,55	3402,64
308,76	3850,89
308,969	3527,62
309,178	2359,43
309,387	3764,37
309,596	2929,25
309,805	3504,39
310,015	3041,52
310,224	4488,82
310,433	3276,86
310,642	2601,08
310,851	2575,14
311,06	3483,26
311,269	3362,58
311,478	2552,31
311,687	2249,27
311,896	3120,33
312,106	3239,5
312,315	3255,93
312,524	2733,77
312,733	2748,69
312,942	2955,39
313,151	2480,7
313,36	2731,07
313,569	3391,52
313,778	3965,06
313,987	2689,01
314,195	2921,24
314,404	4364,64
314,613	3077,67
314,822	2921,34
315,031	2688,61
315,24	3382,21
315,449	4064,4
315,658	2724,96
315,867	2916,64
316,076	4327,48
316,284	4085,33
316,493	2696,42
316,702	3166,5
316,911	3277,06
317,12	4318,57
317,329	2763,51
317,537	2678,19
317,746	3441,2
317,955	3149,67
318,164	3028
318,372	3205,86
318,581	3397,43
318,79	4032,95
318,999	3559,47
319,207	3594,72
319,416	3864,21
319,625	3724,81
319,833	3102,01
320,042	2691,21
320,251	3877,03
320,459	3802,92
320,668	3653,1
320,877	3242,21
321,085	3843,98
321,294	4563,22
321,502	2841,93
321,711	3268,95
321,92	3924,5
322,128	4682
322,337	3156,98
322,545	3526,12
322,754	4488,31
322,962	3617,15
323,171	3683,65
323,379	3372,5
323,588	4691,51
323,796	5464,83
324,005	3524,12
324,213	3508,59
324,422	4404,89
324,63	3995,1
324,839	5729,91
325,047	4299,24
325,256	4782,24
325,464	5814,14
325,672	4781,04
325,881	4459,67
326,089	5208,76
326,297	4982,43
326,506	4986,24
326,714	4883,19
326,923	5101,7
327,131	5803,22
327,339	5153,68
327,548	5903,77
327,756	6819,89
327,964	7575,99
328,172	8611,39
328,381	10170,55
328,589	18298,23
328,797	33835,16
329,005	61275,73
329,214	62003,29
329,422	62610,57
329,63	62568,51
329,838	62568,51
330,046	62478,38
330,255	62606,56
330,463	62576,52
330,671	62696,69
330,879	62582,53
331,087	62596,55
331,295	62612,57
331,503	62558,49
331,712	62502,41
331,92	62718,73
332,128	62608,57
332,336	62548,48
332,544	62488,39
332,752	62588,54
332,96	62558,49
333,168	62560,5
333,376	62542,47
333,584	62548,48
333,792	62426,3
334	54407,08
334,208	15687,85
334,416	5793,11
334,624	4787,15
334,832	4718,05
335,04	4167,55
335,248	5254,22
335,456	5317,42
335,664	4377,95
335,872	4275,91
336,08	4819,19
336,287	5229,49
336,495	4149,92
336,703	4196,99
336,911	4222,23
337,119	4882,79
337,327	3881,13
337,535	4601,98
337,742	5355,87
337,95	4577,94
338,158	4865,26
338,366	3854,8
338,573	5597,22
338,781	4314,16
338,989	4524,27
339,197	3893,95
339,404	5881,83
339,612	4774,13
339,82	4310,46
340,028	4353,42
340,235	5381,71
340,443	4615,8
340,651	3762,56
340,858	3683,85
341,066	5052,53
341,274	5570,78
341,481	3766,77
341,689	3788,4
341,896	4509,75
342,104	4861,16
342,312	4133
342,519	3946,83
342,727	4688
342,934	4522,36
343,142	3899,76
343,349	4640,54
343,557	4329,78
343,765	4687,6
343,972	4664,57
344,18	4467,48
344,387	4540,29
344,594	5340,75
344,802	4180,27
345,009	3892,65
345,217	4808,98
345,424	4536,68
345,632	5419,87
345,839	4266,39
346,047	5245,91
346,254	5403,04
346,461	4187,68
346,669	4458,37
346,876	4561,62
347,083	5152,18
347,291	4256,28
347,498	4966,21
347,705	4473,19
347,913	4988,44
348,12	4152,93
348,327	4521,56
348,535	5227,59
348,742	5604,93
348,949	4424,72
349,156	4862,56
349,364	4415,21
349,571	4584,25
349,778	4935,46
349,985	4135,3
350,192	5110,82
350,4	4338,5
350,607	4063,6
350,814	4393,88
351,021	4816,99
351,228	4858,95
351,435	4390,77
351,643	4774,83
351,85	5398,43
352,057	5026,39
352,264	4223,13
352,471	4437,24
352,678	4980,53
352,885	4637,43
353,092	5317,92
353,299	4555,01
353,506	4705,43
353,713	5122,73
353,92	4602,98
354,127	5228,59
354,334	6161,64
354,541	5012,17
354,748	4844,33
354,955	4756,7
355,162	5423,37
355,369	5151,48
355,576	5158,19
355,783	5142,26
355,99	5665,62
356,197	5215,47
356,404	4794,46
356,611	5132,35
356,817	6165,65
357,024	5196,24
357,231	5057,04
357,438	4938,37
357,645	5941,12
357,852	6024,94
358,058	5313,61
358,265	5589,51
358,472	6173,06
358,679	6791,25
358,885	6122,28
359,092	5058,94
359,299	6771,52
359,506	6765,32
359,712	5922,29
359,919	5254,02
360,126	6080,32
360,333	5568,78
360,539	5052,83
360,746	5104,41
360,953	5886,94
361,159	5794,91
361,366	5045,32
361,572	6035,36
361,779	5392,02
361,986	6284,52
362,192	4903,02
362,399	4993,35
362,605	6668,78
362,812	5295,38
363,019	6329,78
363,225	5549,25
363,432	6048,88
363,638	6260,58
363,845	5114,52
364,051	5097,8
364,258	5390,22
364,464	5545,45
364,671	6196,39
364,877	4729,56
365,084	6377,75
365,29	6001,31
365,496	5346,86
365,703	4667,37
365,909	5704,78
366,116	6014,83
366,322	5767,77
366,528	5405,14
366,735	5573,79
366,941	5617,55
367,147	5543,34
367,354	5728,81
367,56	6150,52
367,766	5952,54
367,973	4980,83
368,179	5234
368,385	6740,78
368,592	5608,54
368,798	5709,38
369,004	4930,26
369,21	6059,79
369,417	5494,07
369,623	4686,3
369,829	5818,54
370,035	5917,79
370,241	5491,37
370,448	4860,25
370,654	4923,95
370,86	5812,93
371,066	5861,81
371,272	5496,58
371,478	4894,8
371,684	11690,96
371,891	6304,35
372,097	4873,47
372,303	5395,03
372,509	6036,06
372,715	6376,45
372,921	5164,59
373,127	5081,77
373,333	5994,4
373,539	5423,27
373,745	5571,89
373,951	4706,53
374,157	5679,84
374,363	5774,08
374,569	5859,4
374,775	6498,63
374,981	7208,26
375,187	5887,44
375,393	5654,71
375,599	5420,37
375,804	5905,17
376,01	5545,05
376,216	5282,57
376,422	5517,21
376,628	6036,36
376,834	6046,67
377,04	6262,29
377,246	5923,39
377,451	6721,05
377,657	5981,28
377,863	5551,36
378,069	5749,94
378,274	6125,19
378,48	5678,74
378,686	5404,14
378,892	5253,12
379,097	6741,88
379,303	6489,82
379,509	4930,96
379,715	6959,8
379,92	7403,64
380,126	6247,77
380,332	6005,61
380,537	6446,85
380,743	5699,87
380,949	6784,04
381,154	5148,77
381,36	5450,21
381,565	5692,36
381,771	5559,67
381,977	4828,81
382,182	5564,57
382,388	5921,79
382,593	6611,69
382,799	5695,76
383,004	5379,01
383,21	6476,3
383,415	6306,05
383,621	6125,39
383,826	5584,1
384,032	5830,26
384,237	7103,41
384,443	4726,76
384,648	4737,38
384,854	6727,16
385,059	7408,05
385,265	5634,78
385,47	5761,36
385,675	6211,11
385,881	6059,09
386,086	5166,6
386,291	4786,95
386,497	6564,32
386,702	5881,63
386,907	5416,36
387,113	5557,56
387,318	5624,86
387,523	6301,04
387,729	4758,71
387,934	4651,05
388,139	5829,26
388,344	5555,26
388,55	5423,27
388,755	5456,22
388,96	5474,14
389,165	5796,91
389,371	5271,95
389,576	5504,39
389,781	5196,64
389,986	6258,28
390,191	5372,4
390,396	4759,81
390,601	6172,66
390,807	5712,49
391,012	5119,83
391,217	5321,12
391,422	6011,22
391,627	6290,43
391,832	5402,94
392,037	5195,34
392,242	5484,96
392,447	6443,25
392,652	4684
392,857	4663,47
393,062	5662,02
393,267	5554,86
393,472	5338,05
393,677	6017,33
393,882	7211,16
394,087	7335,64
394,292	7188,23
394,497	7212,76
394,702	7726,71
394,907	7270,15
395,112	6722,35
395,317	5599,33
395,521	6867,06
395,726	5967,16
395,931	5746,64
396,136	4741,78
396,341	6879,68
396,546	5482,96
396,75	5038,71
396,955	5824,15
397,16	6433,33
397,365	5771,47
397,57	5892,75
397,774	4922,84
397,979	5707,28
398,184	5919,99
398,389	4536,48
398,593	4845,33
398,798	6225,93
399,003	5268,85
399,207	5281,97
399,412	5320,62
399,617	5237,3
399,821	6207,91
400,026	5129,84
400,231	5604,83
400,435	5262,74
400,64	5722,5
400,844	5380,81
401,049	5329,43
401,254	6436,44
401,458	5389,12
401,663	6148,02
401,867	5781,89
402,072	5219,88
402,276	5910,28
402,481	5416,66
402,685	4746,89
402,89	6018,43
403,094	6333,69
403,299	6421,12
403,503	7470,44
403,708	10389,07
403,912	9475,34
404,116	9439,79
404,321	8993,55
404,525	8603,38
404,73	7976,37
404,934	6564,22
405,138	6381,96
405,343	7341,55
405,547	7194,94
405,751	5923,5
405,956	5790,3
406,16	6598,77
406,364	7573,09
406,569	5997,5
406,773	4847,74
406,977	6309,96
407,181	6852,54
407,386	5386,52
407,59	5916,99
407,794	6443,75
407,998	6039,96
408,202	5856
408,407	5783,69
408,611	6681,59
408,815	6839,22
409,019	6370,84
409,223	5785,8
409,427	6530,17
409,632	6999,86
409,836	5731,72
410,04	6044,37
410,244	6335,39
410,448	5790,5
410,652	5760,86
410,856	5061,85
411,06	6108,86
411,264	6115,57
411,468	5401,24
411,672	5548,45
411,876	5701,17
412,08	6376,05
412,284	6020,54
412,488	5493,57
412,692	7026,09
412,896	6398,28
413,1	5512,5
413,304	5734,62
413,508	6717,35
413,712	6652,95
413,916	5680,14
414,12	6009,22
414,323	6963,1
414,527	7692,16
414,731	12650,05
414,935	15911,77
415,139	20269,19
415,343	21772,47
415,546	22068,6
415,75	19990,59
415,954	15738,52
416,158	14306,85
416,361	10510,84
416,565	9227,48
416,769	8889,09
416,973	8800,06
417,176	8246,96
417,38	9153,78
417,584	9523,51
417,788	10646,24
417,991	10797,86
418,195	11186,42
418,398	13576,39
418,602	14669,07
418,806	15752,84
419,009	20924,14
419,213	24720,14
419,417	27394,02
419,62	26412,3
419,824	23024,38
420,027	19871,81
420,231	14883,68
420,434	11614,24
420,638	9444,6
420,841	9156,98
421,045	8627,82
421,248	6990,34
421,452	6505,24
421,655	7430,88
421,859	6861,55
422,062	5569,98
422,266	5993
422,469	7134,55
422,673	6118,98
422,876	6176,06
423,079	5677,04
423,283	6868,06
423,486	6874,67
423,689	7212,26
423,893	6129,19
424,096	7422,67
424,299	7399,13
424,503	7755,05
424,706	7445,3
424,909	9426,37
425,113	10613,49
425,316	10533,38
425,519	12065,5
425,722	13477,14
425,926	13591,21
426,129	12696,81
426,332	14503,33
426,535	14433,63
426,739	14556,51
426,942	13038,81
427,145	11311,21
427,348	9721,2
427,551	8393,78
427,754	7365,29
427,957	7038,61
428,161	7000,26
428,364	7992,59
428,567	7342,05
428,77	6961,1
428,973	8954,69
429,176	10189,08
429,379	10771,22
429,582	10045,67
429,785	10037,66
429,988	9658,31
430,191	7745,34
430,394	7027,6
430,597	7655,21
430,8	7229,09
431,003	7372,9
431,206	6417,81
431,409	7636,38
431,612	7238,8
431,815	6678,39
432,018	7082,48
432,221	8707,63
432,423	9996,5
432,626	11725,71
432,829	11341,25
433,032	13032,4
433,235	12807,47
433,438	10802,57
433,64	10316,16
433,843	9650,1
434,046	8787,45
434,249	7708,08
434,452	7441,3
434,654	8913,43
434,857	7548,05
435,06	6583,75
435,263	6822
435,465	7165,8
435,668	7804,52
435,871	6393,88
436,073	6488,11
436,276	7083,58
436,479	7654,3
436,681	6187,28
436,884	6645,94
437,087	6779,14
437,289	7506,19
437,492	7741,23
437,694	6633,02
437,897	7161,09
438,1	7193,24
438,302	6795,16
438,505	6931,06
438,707	8450,16
438,91	7557,76
439,112	6505,64
439,315	6723,25
439,517	7313,31
439,72	7435,79
439,922	6587,46
440,125	6458,57
440,327	7208,46
440,529	7828,16
440,732	6405,69
440,934	7494,67
441,137	7273,45
441,339	7537,23
441,541	7133,95
441,744	7244,11
441,946	7808,73
442,148	7301,59
442,351	6652,75
442,553	6685,7
442,755	7825,45
442,958	7353,87
443,16	6948,58
443,362	6521,86
443,565	7564,77
443,767	7514,8
443,969	7164,59
444,171	7199,64
444,373	7479,55
444,576	8037,06
444,778	6486,01
444,98	6633,62
445,182	8045,57
445,384	7468,03
445,586	6796,66
445,789	6669,48
445,991	8113,17
446,193	8028,75
446,395	6828,81
446,597	6903,82
446,799	8480
447,001	8088,13
447,203	6854,54
447,405	7109,01
447,607	7440,89
447,809	7312,41
448,011	7499,98
448,213	7599,93
448,415	8585,95
448,617	8627,41
448,819	8650,45
449,021	8665,77
449,223	9611,54
449,425	10259,48
449,627	8926,05
449,829	8887,79
450,031	9758,65
450,233	10140,31
450,435	9973,07
450,636	9254,62
450,838	9928,7
451,04	9809,83
451,242	8771,82
451,444	8470,29
451,646	9043,02
451,847	9311,61
452,049	7669,63
452,251	8544,39
452,453	9068,45
452,654	8807,98
452,856	7768,27
453,058	8125,89
453,26	9017,88
453,461	9220,98
453,663	9239,4
453,865	9003,06
454,066	12396,78
454,268	18583,15
454,47	25294,07
454,671	31742,92
454,873	36428,62
455,074	36483,5
455,276	33314,3
455,478	23809,32
455,679	18357,22
455,881	14706,33
456,082	11426,67
456,284	10990,54
456,485	10234,14
456,687	9757,75
456,888	10640,53
457,09	8440,94
457,291	9069,96
457,493	9330,13
457,694	7629,87
457,896	8628,62
458,097	9365,58
458,299	8802,77
458,5	9331,84
458,701	8323,07
458,903	10641,83
459,104	10710,13
459,306	8788,05
459,507	9302,49
459,708	9689,15
459,91	9272,75
460,111	10296,43
460,312	8650,45
460,514	9346,66
460,715	9585,1
460,916	8712,14
461,117	8138,91
461,319	8742,38
461,52	10460,27
461,721	8466,68
461,922	8698,62
462,124	9997,9
462,325	10227,33
462,526	9053,13
462,727	8911,13
462,928	9488,56
463,129	9293,38
463,331	9606,63
463,532	8529,67
463,733	10459,97
463,934	9232,19
464,135	8865,06
464,336	8427,32
464,537	9713,39
464,738	9701,57
464,939	9594,92
465,14	9235,5
465,341	11546,85
465,542	12156,23
465,743	14949,58
465,944	16970,01
466,145	19407,04
466,346	21188,12
466,547	17744,23
466,748	16219,92
466,949	13826,05
467,15	12443,45
467,351	10240,35
467,552	10918,74
467,753	10344
467,953	11637,18
468,154	9949,13
468,355	8982,03
468,556	9846,18
468,757	10121,98
468,958	10539,49
469,158	9469,64
469,359	10579,14
469,56	10555,31
469,761	9987,89
469,962	10892,8
470,162	10579,04
470,363	10640,03
470,564	9875,02
470,764	10459,07
470,965	10005,81
471,166	10545,4
471,366	10235,05
471,567	15847,88
471,768	10498,53
471,968	10768,02
472,169	9509,99
472,37	9323,82
472,57	10153,73
472,771	10090,64
472,971	10778,03
473,172	9943,42
473,373	10253,57
473,573	11438,39
473,774	10360,03
473,974	12073,81
474,175	15256,62
474,375	14342,6
474,576	13840,97
474,776	13729,61
474,977	14212,31
475,177	13297,58
475,377	12056,49
475,578	11855,99
475,778	12283,21
475,979	11707,88
476,179	12462,67
476,379	10817,89
476,58	11509,59
476,78	11142,96
476,981	10650,15
477,181	10434,33
477,381	10878,38
477,582	11764,06
477,782	10306,05
477,982	10217,82
478,182	11427,47
478,383	10780,94
478,583	12000,6
478,783	10535,28
478,983	11980,98
479,184	12389,37
479,384	11149,97
479,584	11533,93
479,784	11562,87
479,984	11278,96
480,184	10648,64
480,385	10793,76
480,585	12166,75
480,785	11598,92
480,985	10947,78
481,185	11211,96
481,385	11963,05
481,585	11627,96
481,785	11076,16
481,985	11592,21
482,185	12407,49
482,385	11942,62
482,585	11049,03
482,785	11762,46
482,985	11898,16
483,185	12769,92
483,385	11297,89
483,585	11821,34
483,785	12061,19
483,985	12076,01
484,185	11428,27
484,385	10957,29
484,585	12315,56
484,785	12203,6
484,985	11307
485,185	11679,94
485,384	13314,81
485,584	12320,27
485,784	11824,35
485,984	12065
486,184	12875,07
486,383	12224,03
486,583	13818,04
486,783	12446,75
486,983	13629,17
487,183	14486,51
487,382	14021,33
487,582	13673,73
487,782	15280,66
487,981	14650,15
488,181	14150,82
488,381	13454,51
488,58	15354,07
488,78	13836,77
488,98	13250,22
489,179	12841,72
489,379	14320,57
489,579	14782,44
489,778	13495,57
489,978	12996,75
490,177	13366,99
490,377	13642,38
490,576	12884,99
490,776	12882,38
490,975	13859,8
491,175	13673,23
491,374	14154,83
491,574	12846,73
491,773	13609,04
491,973	16895,7
492,172	22374,64
492,372	32048,37
492,571	44251,36
492,771	49340,73
492,97	52737,86
493,169	52473,77
493,369	43156,27
493,568	32658,65
493,767	23244,9
493,967	19360,57
494,166	18969,31
494,365	16824,7
494,565	15121,33
494,764	16008,11
494,963	15084,58
495,163	18242,75
495,362	14186,77
495,561	13743,43
495,76	14635,32
495,959	14850,74
496,159	15788,2
496,358	16823,7
496,557	24312,65
496,756	38871,06
496,955	57643,77
497,155	60734,15
497,354	61189,71
497,553	62200,07
497,752	62567,01
497,951	62592,54
498,15	62624,59
498,349	62566,51
498,548	62598,55
498,747	62594,55
498,946	62518,44
499,145	62576,52
499,344	62654,63
499,543	62588,54
499,742	62610,57
499,941	60516,33
500,14	28209,7
500,339	15303,79
500,538	15214,06
500,737	15833,46
500,936	14508,54
501,135	14344,7
501,334	14743,98
501,533	15040,21
501,732	13993,59
501,931	13807,42
502,129	14995,55
502,328	16209,31
502,527	14688,2
502,726	14151,32
502,925	15065,85
503,123	15657,31
503,322	15282,16
503,521	14336,69
503,72	14875,67
503,919	14849,93
504,117	14378,95
504,316	15419,56
504,515	15702,57
504,713	15712,99
504,912	14595,27
505,111	15552,35
505,309	16138,7
505,508	15646,49
505,707	15736,02
505,905	14860,65
506,104	15449,1
506,302	15658,21
506,501	15149,37
506,7	16377,35
506,898	15957,44
507,097	16414,3
507,295	15920,99
507,494	14629,62
507,692	15723,7
507,891	15907,77
508,089	15097,39
508,288	16776,03
508,486	16182,07
508,685	15953,94
508,883	15874,82
509,082	15344,65
509,28	16550,2
509,478	15924,19
509,677	16184,67
509,875	15487,36
510,073	18127,49
510,272	16495,82
510,47	15894,65
510,669	15803,32
510,867	16678,19
511,065	16891,39
511,263	16371,34
511,462	16381,56
511,66	16713,34
511,858	17181,51
512,056	15970,76
512,255	20174,85
512,453	17312,3
512,651	17272,45
512,849	17117,42
513,048	16903,01
513,246	18317,66
513,444	18729,36
513,642	21023,48
513,84	25427,97
514,038	32919,03
514,236	41589,2
514,435	47862,19
514,633	52444,63
514,831	52683,48
515,029	50749,68
515,227	42172,74
515,425	34700,71
515,623	29390,41
515,821	25386,51
516,019	22870,56
516,217	21371,99
516,415	20765,41
516,613	20612,59
516,811	19341,55
517,009	18354,21
517,207	19332,93
517,405	19731,61
517,602	19797,61
517,8	19823,44
517,998	21053,43
518,196	22505,53
518,394	20922,94
518,592	20502,83
518,79	21823,74
518,987	20869,56
519,185	19045,92
519,383	18930,65
519,581	21474,54
519,779	19746,83
519,976	19472,94
520,174	19182,22
520,372	19794,3
520,57	19709,98
520,767	19433,78
520,965	20074,11
521,163	21342,55
521,36	22100,75
521,558	20880,38
521,756	22045,67
521,953	22317,96
522,151	21290,27
522,349	20564,32
522,546	20631,12
522,744	22371,54
522,941	20842,12
523,139	20926,04
523,336	21089,28
523,534	21906,66
523,731	22034,75
523,929	20679,99
524,126	21201,24
524,324	21876,42
524,521	22933,55
524,719	22705,82
524,916	22686,7
525,114	22263,78
525,311	22288,12
525,509	22621,1
525,706	21395,32
525,903	24699,51
526,101	22114,97
526,298	21801,51
526,496	21469,23
526,693	22422,01
526,89	23182,21
527,088	22565,82
527,285	21972,36
527,482	23161,28
527,679	23452,91
527,877	22346,1
528,074	22558,01
528,271	22761,3
528,468	23873,01
528,666	22874,67
528,863	23031,09
529,06	23266,84
529,257	24747,38
529,454	23390,72
529,652	22455,96
529,849	25120,32
530,046	23992,29
530,243	23272,34
530,44	22967,2
530,637	23668,12
530,834	24737,47
531,031	23732,11
531,228	23813,73
531,425	25924,89
531,622	25865,2
531,819	24308,95
532,016	24622,1
532,213	24954,48
532,41	25194,93
532,607	25550,05
532,804	25391,02
533,001	25716,19
533,198	25666,71
533,395	25420,06
533,592	25289,17
533,789	25871,81
533,986	26693,7
534,183	26081,02
534,38	26086,92
534,576	27090,68
534,773	26874,27
534,97	26328,98
535,167	25979,37
535,364	27715,08
535,561	27382,4
535,757	26986,73
535,954	26413,1
536,151	27944,42
536,348	27498,27
536,544	27944,92
536,741	26960,59
536,938	28314,75
537,134	28819,28
537,331	27838,36
537,528	27232,89
537,724	28191,88
537,921	28176,25
538,118	27722,8
538,314	27586,9
538,511	29587,7
538,707	29572,08
538,904	29548,24
539,101	29109,31
539,297	30045,16
539,494	29752,94
539,69	29229,78
539,887	29443,19
540,083	30592,36
540,28	30987,23
540,476	30936,55
540,673	29867,6
540,869	31372,39
541,066	30771,01
541,262	30520,45
541,458	31292,87
541,655	31812,52
541,851	31895,84
542,048	31229,38
542,244	30905,01
542,44	31918,48
542,637	31361,17
542,833	31222,17
543,029	31337,44
543,226	32498,82
543,422	33111,21
543,618	32028,34
543,814	32240,84
544,011	33010,86
544,207	33099,39
544,403	33465,42
544,599	33541,13
544,796	33988,88
544,992	34293,02
545,188	33870,41
545,384	33120,22
545,58	33870,21
545,776	35036,1
545,972	33167,59
546,169	33324,02
546,365	34321,46
546,561	34785,03
546,757	34190,67
546,953	34478,09
547,149	34601,97
547,345	35281,75
547,541	35108,4
547,737	34581,54
547,933	35658,4
548,129	35865,7
548,325	35933,5
548,521	36760,2
548,717	38186,66
548,913	39005,05
549,109	39005,15
549,305	38446,74
549,501	39226,77
549,697	38842,41
549,892	37400,22
550,088	37344,04
550,284	38584,84
550,48	38986,42
550,676	38370,83
550,872	37618,04
551,067	38807,26
551,263	38979,31
551,459	38091,23
551,655	39592
551,85	40153,01
552,046	39659,1
552,242	39293,57
552,438	40247,25
552,633	40876,66
552,829	41733,71
553,025	41355,66
553,22	41788,59
553,416	42968,2
553,612	42209,09
553,807	42334,28
554,003	42081,71
554,198	42984,92
554,394	44437,22
554,59	43731,2
554,785	44267,68
554,981	45889,73
555,176	47027,68
555,372	47769,05
555,567	47989,47
555,763	49081,66
555,958	49226,37
556,154	50427,41
556,349	52397,76
556,545	54114,85
556,74	55047,41
556,936	55911,16
557,131	56667,65
557,326	57152,46
557,522	58728,74
557,717	58443,83
557,912	59793,79
558,108	60259,76
558,303	60927,63
558,498	61567,16
558,694	61847,76
558,889	62343,38
559,084	62456,95
559,28	62576,52
559,475	62560,5
559,67	62618,58
559,865	62580,53
560,061	62590,54
560,256	62568,51
560,451	62568,51
560,646	62554,49
560,841	62560,5
561,037	62554,49
561,232	62574,52
561,427	62538,46
561,622	62576,52
561,817	62550,48
562,012	62590,54
562,207	62614,57
562,402	62524,44
562,597	62596,55
562,792	62550,48
562,987	62650,63
563,182	62598,55
563,377	62654,63
563,572	62582,53
563,767	62606,56
563,962	62570,51
564,157	62622,59
564,352	62598,55
564,547	62546,48
564,742	62606,56
564,937	62494,4
565,132	62582,53
565,327	62554,49
565,522	62588,54
565,716	62576,52
565,911	62564,5
566,106	62600,55
566,301	62564,5
566,496	62578,52
566,691	62488,39
566,885	62546,48
567,08	62618,58
567,275	62578,52
567,47	62602,56
567,664	62622,59
567,859	62570,51
568,054	62564,5
568,248	62530,45
568,443	62528,45
568,638	62514,43
568,832	62668,65
569,027	62598,55
569,222	62514,43
569,416	62480,38
569,611	62534,46
569,805	62642,62
570	62506,42
570,195	62562,5
570,389	62544,47
570,584	62554,49
570,778	62586,53
570,973	62628,6
571,167	62578,52
571,362	62602,56
571,556	62608,57
571,751	62540,47
571,945	62536,46
572,139	62542,47
572,334	62610,57
572,528	62532,46
572,723	62556,49
572,917	62560,5
573,111	62576,52
573,306	62568,51
573,5	62558,49
573,694	62572,51
573,889	62544,47
574,083	62540,47
574,277	62558,49
574,472	62528,45
574,666	62558,49
574,86	62592,54
575,054	62602,56
575,249	62552,48
575,443	62610,57
575,637	62582,53
575,831	62620,58
576,025	62586,53
576,219	62644,62
576,414	62542,47
576,608	62604,56
576,802	62550,48
576,996	62646,62
577,19	62592,54
577,384	62608,57
577,578	62568,51
577,772	62580,53
577,966	62622,59
578,16	62570,51
578,354	62574,52
578,548	62498,41
578,742	62560,5
578,936	62608,57
579,13	62544,47
579,324	62584,53
579,518	62524,44
579,712	62574,52
579,906	62522,44
580,1	62602,56
580,294	62558,49
580,488	62518,44
580,682	62606,56
580,875	62620,58
581,069	62544,47
581,263	62552,48
581,457	62674,66
581,651	62570,51
581,845	62554,49
582,038	62606,56
582,232	62606,56
582,426	62626,59
582,62	62550,48
582,813	62514,43
583,007	62574,52
583,201	62574,52
583,394	62574,52
583,588	62504,42
583,782	62634,6
583,975	62606,56
584,169	62590,54
584,363	62602,56
584,556	62650,63
584,75	62552,48
584,943	62566,51
585,137	62598,55
585,33	62592,54
585,524	62560,5
585,718	62604,56
585,911	62610,57
586,105	62570,51
586,298	62526,45
586,491	62478,38
586,685	62530,45
586,878	62598,55
587,072	62618,58
587,265	62560,5
587,459	62554,49
587,652	62630,6
587,845	62568,51
588,039	62478,38
588,232	62520,44
588,426	62560,5
588,619	62534,46
588,812	62514,43
589,005	62570,51
589,199	62596,55
589,392	62546,48
589,585	62610,57
589,779	62582,53
589,972	62646,62
590,165	62582,53
590,358	62558,49
590,551	62552,48
590,745	62548,48
590,938	62582,53
591,131	62528,45
591,324	62534,46
591,517	62582,53
591,71	62574,52
591,904	62522,44
592,097	62600,55
592,29	62624,59
592,483	62512,43
592,676	62594,55
592,869	62588,54
593,062	62596,55
593,255	62586,53
593,448	62562,5
593,641	62640,61
593,834	62638,61
594,027	62496,4
594,22	62566,51
594,413	62566,51
594,606	62542,47
594,799	62586,53
594,992	62570,51
595,184	62582,53
595,377	62494,4
595,57	62556,49
595,763	62572,51
595,956	62548,48
596,149	62628,6
596,341	62642,62
596,534	62452,34
596,727	62568,51
596,92	62624,59
597,113	62590,54
597,305	62662,64
597,498	62554,49
597,691	62628,6
597,883	62590,54
598,076	62516,43
598,269	62554,49
598,462	62598,55
598,654	62642,62
598,847	62626,59
599,039	62564,5
599,232	62644,62
599,425	62538,46
599,617	62576,52
599,81	62566,51
600,002	62654,63
600,195	62596,55
600,387	62620,58
600,58	62570,51
600,772	62550,48
600,965	62498,41
601,157	62592,54
601,35	62580,53
601,542	62578,52
601,735	62558,49
601,927	62514,43
602,12	62498,41
602,312	62634,6
602,504	62522,44
602,697	62598,55
602,889	62566,51
603,082	62550,48
603,274	62570,51
603,466	62584,53
603,659	62604,56
603,851	62616,58
604,043	62534,46
604,235	62488,39
604,428	62622,59
604,62	62600,55
604,812	62574,52
605,004	62658,64
605,197	62562,5
605,389	62590,54
605,581	62576,52
605,773	62544,47
605,965	62594,55
606,157	62590,54
606,349	62540,47
606,542	62522,44
606,734	62560,5
606,926	62616,58
607,118	62636,61
607,31	62642,62
607,502	62608,57
607,694	62642,62
607,886	62562,5
608,078	62524,44
608,27	62566,51
608,462	62640,61
608,654	62606,56
608,846	62580,53
609,038	62498,41
609,23	62594,55
609,422	62556,49
609,614	62518,44
609,805	62602,56
609,997	62542,47
610,189	62510,42
610,381	62542,47
610,573	62566,51
610,765	62534,46
610,957	62546,48
611,148	62586,53
611,34	62570,51
611,532	62622,59
611,724	62606,56
611,915	62566,51
612,107	62550,48
612,299	62594,55
612,491	62558,49
612,682	62678,67
612,874	62544,47
613,066	62634,6
613,257	62558,49
613,449	62528,45
613,64	62628,6
613,832	62574,52
614,024	62598,55
614,215	62624,59
614,407	62630,6
614,598	62510,42
614,79	62630,6
614,981	62606,56
615,173	62570,51
615,364	62558,49
615,556	62498,41
615,747	62616,58
615,939	62590,54
616,13	62604,56
616,322	62636,61
616,513	62524,44
616,705	62484,39
616,896	62620,58
617,087	62586,53
617,279	62514,43
617,47	62578,52
617,661	62590,54
617,853	62542,47
618,044	62558,49
618,235	62546,48
618,427	62654,63
618,618	62562,5
618,809	62538,46
619	62568,51
619,192	62632,6
619,383	62610,57
619,574	62626,59
619,765	62534,46
619,957	62530,45
620,148	62600,55
620,339	62498,41
620,53	62550,48
620,721	62520,44
620,912	62574,52
621,103	62628,6
621,294	62576,52
621,485	62626,59
621,677	62584,53
621,868	62568,51
622,059	62630,6
622,25	62614,57
622,441	62516,43
622,632	62586,53
622,823	62590,54
623,014	62518,44
623,205	62590,54
623,395	62602,56
623,586	62608,57
623,777	62556,49
623,968	62560,5
624,159	62504,42
624,35	62598,55
624,541	62522,44
624,732	62550,48
624,923	62622,59
625,113	62546,48
625,304	62574,52
625,495	62592,54
625,686	62510,42
625,877	62580,53
626,067	62618,58
626,258	62546,48
626,449	62594,55
626,639	62624,59
626,83	62562,5
627,021	62636,61
627,211	62590,54
627,402	62558,49
627,593	62462,35
627,783	62562,5
627,974	62526,45
628,165	62458,35
628,355	62478,38
628,546	62588,54
628,736	62568,51
628,927	62586,53
629,117	62500,41
629,308	62574,52
629,498	62568,51
629,689	62550,48
629,879	62674,66
630,07	62522,44
630,26	62550,48
630,451	62588,54
630,641	62586,53
630,832	62566,51
631,022	62514,43
631,212	62622,59
631,403	62570,51
631,593	62638,61
631,784	62492,4
631,974	62570,51
632,164	62634,6
632,355	62566,51
632,545	62582,53
632,735	62572,51
632,925	62636,61
633,116	62558,49
633,306	62506,42
633,496	62600,55
633,686	62592,54
633,876	62602,56
634,067	62580,53
634,257	62574,52
634,447	62586,53
634,637	62530,45
634,827	62552,48
635,017	62466,36
635,208	62582,53
635,398	62614,57
635,588	62606,56
635,778	62510,42
635,968	62622,59
636,158	62624,59
636,348	62588,54
636,538	62574,52
636,728	62572,51
636,918	62568,51
637,108	62554,49
637,298	62512,43
637,488	62472,37
637,678	62554,49
637,868	62624,59
638,057	62550,48
638,247	62542,47
638,437	62450,34
638,627	62558,49
638,817	62610,57
639,007	62584,53
639,197	62562,5
639,386	62598,55
639,576	62534,46
639,766	62614,57
639,956	62606,56
640,145	62520,44
640,335	62584,53
640,525	62648,62
640,715	62594,55
640,904	62554,49
641,094	62548,48
641,284	62486,39
641,473	62562,5
641,663	62530,45
641,853	62524,44
642,042	62650,63
642,232	62550,48
642,421	62560,5
642,611	62538,46
642,801	62568,51
642,99	62614,57
643,18	62550,48
643,369	62606,56
643,559	62532,46
643,748	62602,56
643,938	62614,57
644,127	62540,47
644,317	62598,55
644,506	62598,55
644,695	62558,49
644,885	62578,52
645,074	62566,51
645,264	62582,53
645,453	62616,58
645,642	62612,57
645,832	62532,46
646,021	62622,59
646,21	62638,61
646,4	62576,52
646,589	62554,49
646,778	62630,6
646,967	62572,51
647,157	62574,52
647,346	62536,46
647,535	62556,49
647,724	62638,61
647,913	62580,53
648,103	62642,62
648,292	62570,51
648,481	62620,58
648,67	62586,53
648,859	62464,36
649,048	62614,57
649,237	62606,56
649,427	62578,52
649,616	62550,48
649,805	62640,61
649,994	62614,57
650,183	62532,46
650,372	62496,4
650,561	62580,53
650,75	62626,59
650,939	62536,46
651,128	62520,44
651,317	62526,45
651,506	62576,52
651,694	62564,5
651,883	62600,55
652,072	62542,47
652,261	62608,57
652,45	62552,48
652,639	62584,53
652,828	62562,5
653,016	62556,49
653,205	62580,53
653,394	62586,53
653,583	62554,49
653,772	62504,42
653,96	62560,5
654,149	62614,57
654,338	62576,52
654,527	62640,61
654,715	62572,51
654,904	62520,44
655,093	62528,45
655,281	62596,55
655,47	62492,4
655,658	62554,49
655,847	62536,46
656,036	62642,62
656,224	62600,55
656,413	62618,58
656,601	62504,42
656,79	62580,53
656,978	62610,57
657,167	62612,57
657,355	62608,57
657,544	62592,54
657,732	62616,58
657,921	62586,53
658,109	62494,4
658,298	62634,6
658,486	62542,47
658,675	62606,56
658,863	62672,66
659,051	62588,54
659,24	62512,43
659,428	62600,55
659,616	62640,61
659,805	62520,44
659,993	62556,49
660,181	62648,62
660,37	62526,45
660,558	62530,45
660,746	62594,55
660,934	62582,53
661,123	62598,55
661,311	62568,51
661,499	62592,54
661,687	62514,43
661,875	62568,51
662,064	62470,37
662,252	62596,55
662,44	62630,6
662,628	62560,5
662,816	62646,62
663,004	62518,44
663,192	62568,51
663,38	62582,53
663,568	62632,6
663,756	62536,46
663,944	62574,52
664,132	62574,52
664,32	62534,46
664,508	62574,52
664,696	62610,57
664,884	62628,6
665,072	62608,57
665,26	62586,53
665,448	62584,53
665,636	62560,5
665,824	62602,56
666,012	62566,51
666,199	62584,53
666,387	62608,57
666,575	62634,6
666,763	62576,52
666,951	62558,49
667,139	62590,54
667,326	62544,47
667,514	62488,39
667,702	62556,49
667,889	62554,49
668,077	62534,46
668,265	62470,37
668,453	62520,44
668,64	62562,5
668,828	62640,61
669,016	62560,5
669,203	62558,49
669,391	62618,58
669,578	62552,48
669,766	62552,48
669,954	62614,57
670,141	62604,56
670,329	62574,52
670,516	62534,46
670,704	62616,58
670,891	62648,62
671,079	62606,56
671,266	62606,56
671,454	62626,59
671,641	62548,48
671,828	62598,55
672,016	62528,45
672,203	62536,46
672,391	62580,53
672,578	62480,38
672,765	62540,47
672,953	62570,51
673,14	62510,42
673,327	62580,53
673,515	62598,55
673,702	62546,48
673,889	62502,41
674,077	62542,47
674,264	62616,58
674,451	62630,6
674,638	62452,34
674,825	62492,4
675,013	62614,57
675,2	62506,42
675,387	62540,47
675,574	62620,58
675,761	62630,6
675,948	62568,51
676,136	62620,58
676,323	62592,54
676,51	62566,51
676,697	62634,6
676,884	62568,51
677,071	62550,48
677,258	62554,49
677,445	62608,57
677,632	62544,47
677,819	62558,49
678,006	62632,6
678,193	62532,46
678,38	62582,53
678,567	62550,48
678,754	62554,49
678,94	62578,52
679,127	62592,54
679,314	62528,45
679,501	62610,57
679,688	62580,53
679,875	62584,53
680,062	62532,46
680,248	62646,62
680,435	62620,58
680,622	62582,53
680,809	62590,54
680,995	62542,47
681,182	62568,51
681,369	62476,37
681,556	62626,59
681,742	62508,42
681,929	62648,62
682,116	62550,48
682,302	62484,39
682,489	62596,55
682,675	62610,57
682,862	62526,45
683,049	62648,62
683,235	62602,56
683,422	62492,4
683,608	62624,59
683,795	62524,44
683,981	62602,56
684,168	62506,42
684,354	62580,53
684,541	62506,42
684,727	62544,47
684,914	62538,46
685,1	62628,6
685,287	62640,61
685,473	62562,5
685,659	62526,45
685,846	62658,64
686,032	62550,48
686,218	62556,49
686,405	62578,52
686,591	62612,57
686,777	62566,51
686,964	62582,53
687,15	62604,56
687,336	62538,46
687,522	62584,53
687,709	62600,55
687,895	62534,46
688,081	62574,52
688,267	62560,5
688,454	62568,51
688,64	62588,54
688,826	62566,51
689,012	62542,47
689,198	62544,47
689,384	62600,55
689,57	62530,45
689,756	62586,53
689,942	62510,42
690,128	62544,47
690,314	62566,51
690,501	62532,46
690,687	62632,6
690,873	62598,55
691,058	62580,53
691,244	62572,51
691,43	62602,56
691,616	62654,63
691,802	62602,56
691,988	62602,56
692,174	62646,62
692,36	62534,46
692,546	62560,5
692,732	62530,45
692,917	62542,47
693,103	62582,53
693,289	62590,54
693,475	62552,48
693,661	62500,41
693,846	62534,46
694,032	62596,55
694,218	62596,55
694,404	62524,44
694,589	62590,54
694,775	62600,55
694,961	62558,49
695,146	62524,44
695,332	62592,54
695,518	62548,48
695,703	62570,51
695,889	62576,52
696,074	62540,47
696,26	62486,39
696,446	62530,45
696,631	62606,56
696,817	62622,59
697,002	62576,52
697,188	62616,58
697,373	62616,58
697,559	62574,52
697,744	62574,52
697,93	62554,49
698,115	62598,55
698,3	62622,59
698,486	62562,5
698,671	62588,54
698,857	62582,53
699,042	62560,5
699,227	62544,47
699,413	62482,38
699,598	62470,37
699,783	62628,6
699,969	62514,43
700,154	62568,51
700,339	62580,53
700,524	62602,56
700,71	62622,59
700,895	62478,38
701,08	62626,59
701,265	62590,54
701,45	62650,63
701,636	62606,56
701,821	62530,45
702,006	62640,61
702,191	62554,49
702,376	62552,48
702,561	62478,38
702,746	62570,51
702,931	62574,52
703,116	62654,63
703,301	62556,49
703,486	62558,49
703,671	62680,67
703,856	62526,45
704,041	62578,52
704,226	62584,53
704,411	62512,43
704,596	62127,87
704,781	62558,49
704,966	62590,54
705,151	62580,53
705,336	62570,51
705,521	62510,42
705,706	62596,55
705,89	62526,45
706,075	62660,64
706,26	62622,59
706,445	62640,61
706,63	62488,39
706,814	62598,55
706,999	62626,59
707,184	62572,51
707,368	62548,48
707,553	62584,53
707,738	62590,54
707,923	62598,55
708,107	62550,48
708,292	62510,42
708,476	62506,42
708,661	62584,53
708,846	62556,49
709,03	62522,44
709,215	62550,48
709,399	62572,51
709,584	62590,54
709,768	62582,53
709,953	62554,49
710,137	62626,59
710,322	62570,51
710,506	62562,5
710,691	62506,42
710,875	62558,49
711,06	62622,59
711,244	62600,55
711,429	62502,41
711,613	62518,44
711,797	62660,64
711,982	62608,57
712,166	62602,56
712,35	62488,39
712,535	62574,52
712,719	62528,45
712,903	62578,52
713,088	62600,55
713,272	62554,49
713,456	62590,54
713,64	62492,4
713,824	62556,49
714,009	62626,59
714,193	62544,47
714,377	62614,57
714,561	62592,54
714,745	62566,51
714,929	62566,51
715,113	62576,52
715,298	62564,5
715,482	62542,47
715,666	62566,51
715,85	62622,59
716,034	62596,55
716,218	62614,57
716,402	62502,41
716,586	62666,65
716,77	62566,51
716,954	62614,57
717,138	62558,49
717,322	62588,54
717,506	62544,47
717,689	62596,55
717,873	62610,57
718,057	62558,49
718,241	62490,39
718,425	62662,64
718,609	62544,47
718,793	62582,53
718,976	62566,51
719,16	62578,52
719,344	62548,48
719,528	62536,46
719,711	62608,57
719,895	62572,51
720,079	62582,53
720,263	62598,55
720,446	62636,61
720,63	62518,44
720,814	62524,44
720,997	62494,4
721,181	62602,56
721,364	62608,57
721,548	62534,46
721,732	62534,46
721,915	62614,57
722,099	62658,64
722,282	62594,55
722,466	62494,4
722,649	62572,51
722,833	62558,49
723,016	62542,47
723,2	62598,55
723,383	62586,53
723,567	62614,57
723,75	62550,48
723,934	62458,35
724,117	62534,46
724,3	62502,41
724,484	62566,51
724,667	62558,49
724,85	62624,59
725,034	62598,55
725,217	62596,55
725,4	62606,56
725,584	62644,62
725,767	62584,53
725,95	62694,69
726,133	62518,44
726,317	62608,57
726,5	62578,52
726,683	62598,55
726,866	62608,57
727,049	62608,57
727,232	62650,63
727,416	62576,52
727,599	62634,6
727,782	62554,49
727,965	62594,55
728,148	62648,62
728,331	62622,59
728,514	62594,55
728,697	62534,46
728,88	62566,51
729,063	62546,48
729,246	62584,53
729,429	62536,46
729,612	62558,49
729,795	62564,5
729,978	62638,61
730,161	62694,69
730,344	62566,51
730,526	62590,54
730,709	62562,5
730,892	62546,48
731,075	62600,55
731,258	62552,48
731,441	62594,55
731,623	62614,57
731,806	62568,51
731,989	62566,51
732,172	62462,35
732,354	62554,49
732,537	62646,62
732,72	62570,51
732,903	62550,48
733,085	62550,48
733,268	62642,62
733,451	62622,59
733,633	62632,6
733,816	62674,66
733,998	62634,6
734,181	62454,34
734,364	62582,53
734,546	62558,49
734,729	62618,58
734,911	62564,5
735,094	62574,52
735,276	62596,55
735,459	62576,52
735,641	62536,46
735,824	62526,45
736,006	62634,6
736,188	62614,57
736,371	62654,63
736,553	62638,61
736,736	62586,53
736,918	62572,51
737,1	62562,5
737,283	62560,5
737,465	62552,48
737,647	62546,48
737,83	62554,49
738,012	62538,46
738,194	62606,56
738,376	62622,59
738,559	62562,5
738,741	62578,52
738,923	62586,53
739,105	62526,45
739,287	62550,48
739,469	62580,53
739,652	62622,59
739,834	62574,52
740,016	62562,5
740,198	62570,51
740,38	62648,62
740,562	62558,49
740,744	62536,46
740,926	62544,47
741,108	62598,55
741,29	62640,61
741,472	62470,37
741,654	62462,35
741,836	62476,37
742,018	62544,47
742,2	62598,55
742,382	62552,48
742,564	62540,47
742,746	62588,54
742,928	62550,48
743,109	62584,53
743,291	62580,53
743,473	62494,4
743,655	62536,46
743,837	62604,56
744,019	62608,57
744,2	62542,47
744,382	62552,48
744,564	62518,44
744,746	62578,52
744,927	62632,6
745,109	62490,39
745,291	62534,46
745,472	62500,41
745,654	62586,53
745,836	62522,44
746,017	62666,65
746,199	62550,48
746,38	62566,51
746,562	62626,59
746,744	62588,54
746,925	62598,55
747,107	62654,63
747,288	62550,48
747,47	62578,52
747,651	62590,54
747,833	62514,43
748,014	62658,64
748,195	62620,58
748,377	62630,6
748,558	62574,52
748,74	62608,57
748,921	62518,44
749,102	62592,54
749,284	62616,58
749,465	62634,6
749,646	62608,57
749,828	62578,52
750,009	62690,69
750,19	62506,42
750,372	62658,64
750,553	62598,55
750,734	62630,6
750,915	62578,52
751,096	62592,54
751,278	62540,47
751,459	62620,58
751,64	62608,57
751,821	62594,55
752,002	62612,57
752,183	62616,58
752,364	62620,58
752,546	62616,58
752,727	62612,57
752,908	62592,54
753,089	62514,43
753,27	62648,62
753,451	62584,53
753,632	62564,5
753,813	62630,6
753,994	62602,56
754,175	62654,63
754,356	62514,43
754,536	62560,5
754,717	62578,52
754,898	62660,64
755,079	62598,55
755,26	62616,58
755,441	62632,6
755,622	62646,62
755,802	62586,53
755,983	62494,4
756,164	62634,6
756,345	62582,53
756,526	62630,6
756,706	62630,6
756,887	62642,62
757,068	62716,72
757,248	62560,5
757,429	62586,53
757,61	62532,46
757,79	62690,69
757,971	62628,6
758,152	62552,48
758,332	62614,57
758,513	62582,53
758,693	62602,56
758,874	62578,52
759,055	62598,55
759,235	62526,45
759,416	62576,52
759,596	62542,47
759,777	62610,57
759,957	62542,47
760,137	62538,46
760,318	62560,5
760,498	62552,48
760,679	62626,59
760,859	62614,57
761,039	62552,48
761,22	62598,55
761,4	62664,65
761,581	62552,48
761,761	62536,46
761,941	62636,61
762,121	62502,41
762,302	62550,48
762,482	62526,45
762,662	62590,54
762,842	62562,5
763,023	62546,48
763,203	62502,41
763,383	62568,51
763,563	62624,59
763,743	62522,44
763,923	62582,53
764,104	62598,55
764,284	62594,55
764,464	62520,44
764,644	62550,48
764,824	62530,45
765,004	62586,53
765,184	62504,42
765,364	62612,57
765,544	62610,57
765,724	62590,54
765,904	62556,49
766,084	62570,51
766,264	62606,56
766,444	62524,44
766,624	62570,51
766,804	62582,53
766,983	62638,61
767,163	62570,51
767,343	62578,52
767,523	62612,57
767,703	62618,58
767,883	62642,62
768,062	62606,56
768,242	62526,45
768,422	62594,55
768,602	62546,48
768,781	62582,53
768,961	62590,54
769,141	62526,45
769,32	62540,47
769,5	62502,41
769,68	62546,48
769,859	62550,48
770,039	62618,58
770,219	62606,56
770,398	62510,42
770,578	62530,45
770,757	62590,54
770,937	62622,59
771,116	62546,48
771,296	62558,49
771,475	62616,58
771,655	62552,48
771,834	62516,43
772,014	62524,44
772,193	62652,63
772,373	62574,52
772,552	62570,51
772,731	62610,57
772,911	62584,53
773,09	62530,45
773,269	62578,52
773,449	62582,53
773,628	62606,56
773,807	62586,53
773,987	62514,43
774,166	62598,55
774,345	62632,6
774,524	62510,42
774,704	62552,48
774,883	62632,6
775,062	62358,2
775,241	62632,6
775,42	62564,5
775,6	62624,59
775,779	62594,55
775,958	62548,48
776,137	62518,44
776,316	62566,51
776,495	62588,54
776,674	62578,52
776,853	62632,6
777,032	62538,46
777,211	62580,53
777,39	62562,5
777,569	62552,48
777,748	62548,48
777,927	62540,47
778,106	62596,55
778,285	62532,46
778,464	62630,6
778,643	62550,48
778,822	62584,53
779	62554,49
779,179	62548,48
779,358	62628,6
779,537	62566,51
779,716	62610,57
779,894	62510,42
780,073	62552,48
780,252	62626,59
780,431	62534,46
780,609	62564,5
780,788	62598,55
780,967	62534,46
781,145	62534,46
781,324	62606,56
781,503	62636,61
781,681	62602,56
781,86	62568,51
782,039	62556,49
782,217	62634,6
782,396	62578,52
782,574	62554,49
782,753	62624,59
782,931	62526,45
783,11	62580,53
783,288	62556,49
783,467	62596,55
783,645	62572,51
783,824	62616,58
784,002	62520,44
784,18	62582,53
784,359	62492,4
784,537	62530,45
784,716	62546,48
784,894	62544,47
785,072	62496,4
785,251	62584,53
785,429	62662,64
785,607	62560,5
785,785	62586,53
785,964	62584,53
786,142	62552,48
786,32	62652,63
786,498	62580,53
786,677	62624,59
786,855	62554,49
787,033	62566,51
787,211	62572,51
787,389	62630,6
787,567	62560,5
787,745	62626,59
787,923	62558,49
788,102	62528,45
788,28	62572,51
788,458	62642,62
788,636	62590,54
788,814	62552,48
788,992	62612,57
789,17	62526,45
789,348	62506,42
789,526	62596,55
789,703	62578,52
789,881	62552,48
790,059	62586,53
790,237	62536,46
790,415	62554,49
790,593	62598,55
790,771	62570,51
790,949	62630,6
791,126	62594,55
791,304	62636,61
791,482	62550,48
791,66	62546,48
791,837	62656,64
792,015	62566,51
792,193	62534,46
792,371	62642,62
792,548	62530,45
792,726	62600,55
792,904	62488,39
793,081	62606,56
793,259	62498,41
793,436	62562,5
793,614	62604,56
793,792	62514,43
793,969	62574,52
794,147	62550,48
794,324	62548,48
794,502	62518,44
794,679	62578,52
794,857	62582,53
795,034	62564,5
795,212	62586,53
795,389	62540,47
795,567	62530,45
795,744	62566,51
795,921	62564,5
796,099	62514,43
796,276	62574,52
796,453	62614,57
796,631	62528,45
796,808	62532,46
796,985	62546,48
797,163	62646,62
797,34	62578,52
797,517	62614,57
797,694	62542,47
797,872	62536,46
798,049	62586,53
798,226	62518,44
798,403	62562,5
798,58	62632,6
798,757	62536,46
798,935	62592,54
799,112	62528,45
799,289	62590,54
799,466	62480,38
799,643	62598,55
799,82	62638,61
799,997	62606,56
800,174	62592,54
800,351	62544,47
800,528	62606,56
800,705	62634,6
800,882	62562,5
801,059	62550,48
801,236	62564,5
801,413	62588,54
801,589	62554,49
801,766	62596,55
801,943	62586,53
802,12	62656,64
802,297	62648,62
802,474	62600,55
802,651	62560,5
802,827	62560,5
803,004	62626,59
803,181	62616,58
803,358	62586,53
803,534	62642,62
803,711	62552,48
803,888	62484,39
804,064	62634,6
804,241	62518,44
804,418	62550,48
804,594	62538,46
804,771	62550,48
804,947	62634,6
805,124	62570,51
805,301	62564,5
805,477	62560,5
805,654	62552,48
805,83	62576,52
806,007	62522,44
806,183	62560,5
806,36	62584,53
806,536	62534,46
806,712	62534,46
806,889	62582,53
807,065	62600,55
807,242	62490,39
807,418	62550,48
807,594	62618,58
807,771	62568,51
807,947	62572,51
808,123	62586,53
808,3	62594,55
808,476	62598,55
808,652	62528,45
808,829	62554,49
809,005	62570,51
809,181	62590,54
809,357	62642,62
809,533	62614,57
809,71	62646,62
809,886	62616,58
810,062	62608,57
810,238	62566,51
810,414	62618,58
810,59	62602,56
810,766	62616,58
810,942	62504,42
811,118	62566,51
811,294	62596,55
811,47	62536,46
811,646	62598,55
811,822	62572,51
811,998	62584,53
812,174	62494,4
812,35	62562,5
812,526	62586,53
812,702	62526,45
812,878	62510,42
813,054	62522,44
813,23	62514,43
813,405	62618,58
813,581	62518,44
813,757	62626,59
813,933	62610,57
814,109	62630,6
814,284	62622,59
814,46	62532,46
814,636	62622,59
814,812	62534,46
814,987	62602,56
815,163	62674,66
815,339	62478,38
815,514	62562,5
815,69	62570,51
815,866	62594,55
816,041	62614,57
816,217	62514,43
816,392	62592,54
816,568	62624,59
816,743	62530,45
816,919	62652,63
817,094	62520,44
817,27	62552,48
817,445	62602,56
817,621	62616,58
817,796	62644,62
817,972	62572,51
818,147	62492,4
818,322	62472,37
818,498	62588,54
818,673	62520,44
818,849	62590,54
819,024	62542,47
819,199	62556,49
819,375	62598,55
819,55	62568,51
819,725	62558,49
819,9	62554,49
820,076	62610,57
820,251	62616,58
820,426	62582,53
820,601	62608,57
820,776	62546,48
820,952	62594,55
821,127	62612,57
821,302	62622,59
821,477	62554,49
821,652	62664,65
821,827	62508,42
822,002	62588,54
822,177	62566,51
822,352	62542,47
822,527	62532,46
822,702	62514,43
822,877	62488,39
823,052	62572,51
823,227	62542,47
823,402	62594,55
823,577	62584,53
823,752	62598,55
823,927	62552,48
824,102	62588,54
824,277	62540,47
824,451	62602,56
824,626	62504,42
824,801	62512,43
824,976	62668,65
825,151	62586,53
825,325	62568,51
825,5	62600,55
825,675	62642,62
825,85	62634,6
826,024	62624,59
826,199	62598,55
826,374	62532,46
826,548	62546,48
826,723	62574,52
826,897	62640,61
827,072	62496,4
827,247	62622,59
827,421	62586,53
827,596	62606,56
827,77	62546,48
827,945	62584,53
828,119	62554,49
828,294	62570,51
828,468	62608,57
828,643	62542,47
828,817	62558,49
828,992	62562,5
829,166	62576,52
829,34	62630,6
829,515	62654,63
829,689	62600,55
829,864	62596,55
830,038	62622,59
830,212	62536,46
830,386	62610,57
830,561	62566,51
830,735	62528,45
830,909	62544,47
831,084	62558,49
831,258	62596,55
831,432	62574,52
831,606	62552,48
831,78	62552,48
831,954	62646,62
832,129	62620,58
832,303	62574,52
832,477	62566,51
832,651	62606,56
832,825	62538,46
832,999	62536,46
833,173	62648,62
833,347	62512,43
833,521	62578,52
833,695	62498,41
833,869	62508,42
834,043	62616,58
834,217	62602,56
834,391	62572,51
834,565	62488,39
834,739	62546,48
834,913	62634,6
835,086	62600,55
835,26	62634,6
835,434	62604,56
835,608	62590,54
835,782	62616,58
835,956	62576,52
836,129	62632,6
836,303	62550,48
836,477	62582,53
836,651	62530,45
836,824	62486,39
836,998	62602,56
837,172	62590,54
837,345	62622,59
837,519	62596,55
837,693	62624,59
837,866	62580,53
838,04	62514,43
838,213	62458,35
838,387	62554,49
838,56	62570,51
838,734	62590,54
838,907	62598,55
839,081	62674,66
839,254	62598,55
839,428	62544,47
839,601	62584,53
839,775	62524,44
839,948	62600,55
840,122	62546,48
840,295	62598,55
840,468	62526,45
840,642	62616,58
840,815	62598,55
840,988	62536,46
841,162	62588,54
841,335	62616,58
841,508	62606,56
841,682	62640,61
841,855	62584,53
842,028	62534,46
842,201	62590,54
842,374	62616,58
842,548	62610,57
842,721	62518,44
842,894	62536,46
843,067	62624,59
843,24	62492,4
843,413	62532,46
843,586	62646,62
843,759	62566,51
843,932	62554,49
844,105	62528,45
844,278	62610,57
844,451	62614,57
844,624	62554,49
844,797	62574,52
844,97	62560,5
845,143	62464,36
845,316	62584,53
845,489	62574,52
845,662	62590,54
845,835	62548,48
846,008	62590,54
846,18	62544,47
846,353	62576,52
846,526	62590,54
846,699	62660,64
846,872	62542,47
847,044	62596,55
847,217	62536,46
847,39	62552,48
847,563	62608,57
847,735	62608,57
847,908	62550,48
848,081	62502,41
848,253	62536,46
848,426	62616,58
848,598	62574,52
848,771	62570,51
848,944	62544,47
849,116	62588,54
849,289	62576,52
849,461	62596,55
849,634	62528,45
849,806	62548,48
849,979	62606,56
850,151	62620,58
850,324	62582,53
850,496	62540,47
850,668	62510,42
850,841	62584,53
851,013	62548,48
851,186	62570,51
851,358	62606,56
851,53	62566,51
851,703	62624,59
851,875	62540,47
852,047	62602,56
852,219	62460,35
852,392	62600,55
852,564	62570,51
852,736	62532,46
852,908	62660,64
853,081	62546,48
853,253	62524,44
853,425	62576,52
853,597	62588,54
853,769	62584,53
853,941	62552,48
854,113	62528,45
854,285	62590,54
854,457	62542,47
854,63	62494,4
854,802	62566,51
854,974	62600,55
855,146	62578,52
855,318	62592,54
855,489	62586,53
855,661	62650,63
855,833	62568,51
856,005	62562,5
856,177	62494,4
856,349	62572,51
856,521	62536,46
856,693	62514,43
856,865	62594,55
857,036	62608,57
857,208	62562,5
857,38	62542,47
857,552	62616,58
857,723	62518,44
857,895	62606,56
858,067	62568,51
858,239	62586,53
858,41	62618,58
858,582	62526,45
858,754	62638,61
858,925	62526,45
859,097	62542,47
859,268	62536,46
859,44	62564,5
859,612	62520,44
859,783	62570,51
859,955	62538,46
860,126	62554,49
860,298	62568,51
860,469	62566,51
860,641	62526,45
860,812	62584,53
860,983	62580,53
861,155	62572,51
861,326	62610,57
861,498	62594,55
861,669	62572,51
861,84	62650,63
862,012	62562,5
862,183	62540,47
862,354	62572,51
862,526	62584,53
862,697	62508,42
862,868	62512,43
863,039	62556,49
863,211	62550,48
863,382	62582,53
863,553	62594,55
863,724	62590,54
863,895	62616,58
864,066	62658,64
864,238	62606,56
864,409	62598,55
864,58	62462,35
864,751	62602,56
864,922	62540,47
865,093	62600,55
865,264	62626,59
865,435	62634,6
865,606	62558,49
865,777	62592,54
865,948	62526,45
866,119	62562,5
866,29	62574,52
866,461	62558,49
866,632	62538,46
866,802	62598,55
866,973	62594,55
867,144	62546,48
867,315	62514,43
867,486	62498,41
867,657	62492,4
867,827	62568,51
867,998	62568,51
868,169	62550,48
868,34	62566,51
868,51	62602,56
868,681	62590,54
868,852	62536,46
869,022	62624,59
869,193	62602,56
869,364	62588,54
869,534	62618,58
869,705	62582,53
869,875	62558,49
870,046	62562,5
870,217	62544,47
870,387	62656,64
870,558	62524,44
870,728	62544,47
870,899	62516,43
871,069	62564,5
871,239	62624,59
871,41	62552,48
871,58	62602,56
871,751	62634,6
871,921	62586,53
872,091	62536,46
872,262	62554,49
872,432	62612,57
872,602	62450,34
872,773	62570,51
872,943	62516,43
873,113	62626,59
873,284	62520,44
873,454	62512,43
873,624	62582,53
873,794	62580,53
873,964	62638,61
874,135	62550,48
874,305	62616,58
874,475	62588,54
874,645	62530,45
874,815	62544,47
874,985	62544,47
875,155	62606,56
875,325	62586,53
875,495	62592,54
875,665	62558,49
875,835	62600,55
876,005	62516,43
876,175	62618,58
876,345	62562,5
876,515	62526,45
876,685	62606,56
876,855	62598,55
877,025	62622,59
877,195	62574,52
877,365	62598,55
877,534	62606,56
877,704	62516,43
877,874	62646,62
878,044	62578,52
878,214	62522,44
878,383	62512,43
878,553	62616,58
878,723	62546,48
878,892	62604,56
879,062	62614,57
879,232	62532,46
879,401	62530,45
879,571	62598,55
879,741	62522,44
879,91	62506,42
880,08	62616,58
880,249	62628,6
880,419	62538,46
880,589	62520,44
880,758	62526,45
880,928	62600,55
881,097	62586,53
881,267	62580,53
881,436	62518,44
881,605	62610,57
881,775	62480,38
881,944	62586,53
882,114	62532,46
882,283	62538,46
882,452	62546,48
882,622	62578,52
882,791	62490,39
882,96	62514,43
883,13	62522,44
883,299	62560,5
883,468	62564,5
883,637	62572,51
883,807	62596,55
883,976	62488,39
884,145	62606,56
884,314	62636,61
884,483	62576,52
884,652	62584,53
884,822	62524,44
884,991	62608,57
885,16	62600,55
885,329	62490,39
885,498	62578,52
885,667	62516,43
885,836	62552,48
886,005	62566,51
886,174	62606,56
886,343	62562,5
886,512	62576,52
886,681	62574,52
886,85	62572,51
887,019	62582,53
887,187	62522,44
887,356	62566,51
887,525	62558,49
887,694	62550,48
887,863	62610,57
888,032	62562,5
888,2	62584,53
888,369	62572,51
888,538	62582,53
888,707	62550,48
888,875	62550,48
889,044	62600,55
889,213	62646,62
889,381	62538,46
889,55	62492,4
889,719	62536,46
889,887	62606,56
890,056	62586,53
890,224	62562,5
890,393	62590,54
890,562	62618,58
890,73	62602,56
890,899	62550,48
891,067	62616,58
891,236	62552,48
891,404	62568,51
891,573	62508,42
891,741	62528,45
891,909	62624,59
892,078	62504,42
892,246	62558,49
892,415	62616,58
892,583	62550,48
892,751	62538,46
892,92	62556,49
893,088	62518,44
893,256	62610,57
893,424	62552,48
893,593	62556,49
893,761	62544,47
893,929	62602,56
894,097	62604,56
894,265	62518,44
894,434	62534,46
894,602	62558,49
894,77	62556,49
894,938	62546,48
895,106	62644,62
895,274	62560,5
895,442	62602,56
895,61	62590,54
895,778	62562,5
895,946	62584,53
896,114	62556,49
896,282	62538,46
896,45	62602,56
896,618	62612,57
896,786	62480,38
896,954	62542,47
897,122	62494,4
897,29	62538,46
897,458	62558,49
897,625	62510,42
897,793	62624,59
897,961	62572,51
898,129	62496,4
898,297	62534,46
898,464	62626,59
898,632	62554,49
898,8	62592,54
898,968	62562,5
899,135	62598,55
899,303	62664,65
899,471	62592,54
899,638	62504,42
899,806	62584,53
899,973	62620,58
900,141	62524,44
900,309	62598,55
900,476	62542,47
900,644	62614,57
900,811	62548,48
900,979	62634,6
901,146	62510,42
901,314	62536,46
901,481	62552,48
901,649	62574,52
901,816	62582,53
901,983	62558,49
902,151	62550,48
