Data from Subt4__2__14-32-23-906.txt Node

Date: Thu Feb 19 14:32:23 CET 2026
User: Versuch 234
Spectrometer: USB4F05580
Trigger mode: 4
Integration Time (sec): 7,500000E-2
Scans to average: 5
Electric dark correction enabled: true
Nonlinearity correction enabled: false
Boxcar width: 0
XAxis mode: Wavelengths
Number of Pixels in Spectrum: 3648
>>>>>Begin Spectral Data<<<<<
197,409	13,25
197,623	13,25
197,837	13,25
198,051	110,99
198,265	23,27
198,479	-60,85
198,693	-5,57
198,907	-2,77
199,122	10,05
199,336	-5,57
199,55	-7,58
199,763	39,69
199,977	6,04
200,191	49,3
200,405	13,65
200,619	-7,98
200,833	-28,41
201,047	36,09
201,261	48,5
201,475	58,12
201,689	34,88
201,903	23,27
202,117	-52,44
202,331	-51,64
202,545	2,84
202,758	30,88
202,972	-52,84
203,186	-46,83
203,4	30,48
203,614	20,06
203,828	-17,19
204,041	16,46
204,255	22,87
204,469	8,85
204,683	62,12
204,897	-10,78
205,11	34,08
205,324	-12,38
205,538	-19,19
205,752	-16,39
205,965	18,86
206,179	50,51
206,393	-65,66
206,606	1,24
206,82	6,84
207,034	34,88
207,248	-4,77
207,461	-11,58
207,675	-5,57
207,889	24,87
208,102	26,07
208,316	-38,42
208,529	-28,41
208,743	-34,82
208,957	0,03
209,17	-19,6
209,384	44,1
209,597	-14,79
209,811	24,47
210,025	41,69
210,238	26,07
210,452	7,24
210,665	61,32
210,879	13,65
211,092	-23,2
211,306	-48,44
211,519	-51,24
211,733	-5,98
211,946	49,3
212,16	32,88
212,373	-1,57
212,587	-24,8
212,8	-28,01
213,014	-54,85
213,227	23,27
213,44	2,04
213,654	37,69
213,867	52,51
214,081	27,67
214,294	-22,8
214,507	55,31
214,721	-4,37
214,934	28,07
215,148	9,25
215,361	42,9
215,574	62,52
215,788	-86,89
216,001	82,15
216,214	-2,77
216,428	40,09
216,641	-6,38
216,854	24,47
217,067	4,84
217,281	40,89
217,494	53,71
217,707	39,69
217,92	-10,78
218,134	38,89
218,347	73,74
218,56	35,28
218,773	-42,03
218,986	88,96
219,2	29,68
219,413	27,27
219,626	-5,17
219,839	70,54
220,052	52,11
220,265	-25,6
220,479	27,27
220,692	65,33
220,905	-42,43
221,118	68,13
221,331	-20
221,544	8,45
221,757	53,71
221,97	20,06
222,183	-19,6
222,396	15,66
222,609	50,11
222,822	-54,45
223,035	30,48
223,249	-4,37
223,462	29,68
223,675	-73,67
223,887	40,49
224,1	56,92
224,313	47,3
224,526	6,84
224,739	6,44
224,952	72,94
225,165	-40,43
225,378	37,69
225,591	91,37
225,804	9,65
226,017	49,71
226,23	40,89
226,443	-27,61
226,656	-21,6
226,868	-34,02
227,081	76,54
227,294	-3,57
227,507	15,66
227,72	-4,37
227,933	27,67
228,145	13,25
228,358	14,45
228,571	31,28
228,784	-14,79
228,997	-69,27
229,209	34,48
229,422	1,24
229,635	32,48
229,848	-4,37
230,06	-35,62
230,273	-65,66
230,486	14,45
230,698	-43,63
230,911	-30,81
231,124	-16,39
231,336	-18,79
231,549	16,46
231,762	52,11
231,974	-57,65
232,187	-67,26
232,4	82,55
232,612	-44,43
232,825	12,45
233,038	27,27
233,25	43,3
233,463	27,27
233,675	14,85
233,888	39,29
234,1	40,09
234,313	54,51
234,526	51,31
234,738	22,47
234,951	-56,85
235,163	-39,62
235,376	31,28
235,588	-48,04
235,801	-15,19
236,013	-4,77
236,226	22,07
236,438	28,88
236,65	78,55
236,863	3,24
237,075	72,14
237,288	-6,78
237,5	-42,83
237,713	2,84
237,925	-40,43
238,137	-4,37
238,35	69,73
238,562	2,44
238,774	75,34
238,987	98,58
239,199	33,28
239,411	2,84
239,624	10,45
239,836	56,92
240,048	33,28
240,261	70,94
240,473	25,27
240,685	-0,37
240,897	-38,02
241,11	-12,79
241,322	53,71
241,534	12,05
241,746	4,44
241,959	56,52
242,171	30,08
242,383	26,47
242,595	-60,45
242,807	22,87
243,02	19,26
243,232	23,67
243,444	-5,98
243,656	30,08
243,868	26,07
244,08	-30,01
244,293	-82,49
244,505	19,26
244,717	-14,39
244,929	-68,47
245,141	-29,61
245,353	-10,78
245,565	18,06
245,777	13,65
245,989	20,46
246,201	-12,38
246,413	56,92
246,625	-0,37
246,837	3,24
247,049	16,46
247,261	68,53
247,473	7,64
247,685	35,28
247,897	38,09
248,109	-31,21
248,321	46,1
248,533	-77,28
248,745	6,84
248,957	21,26
249,169	-42,83
249,381	33,28
249,593	16,46
249,804	52,11
250,016	50,51
250,228	-59,65
250,44	47,3
250,652	-18,79
250,864	51,31
251,075	-11,58
251,287	11,25
251,499	35,28
251,711	7,64
251,923	6,04
252,134	48,5
252,346	-32,81
252,558	36,09
252,77	-14,79
252,982	42,49
253,193	11,65
253,405	-6,78
253,617	18,06
253,828	-30,01
254,04	49,71
254,252	96,57
254,463	52,11
254,675	-8,38
254,887	-67,66
255,098	2,04
255,31	-71,27
255,522	80,55
255,733	11,65
255,945	42,9
256,157	-3,17
256,368	29,28
256,58	41,69
256,791	-7,58
257,003	38,89
257,214	40,09
257,426	28,07
257,637	-34,02
257,849	13,25
258,061	73,74
258,272	31,68
258,484	33,68
258,695	-0,37
258,907	39,69
259,118	37,69
259,329	-28,81
259,541	-3,17
259,752	38,09
259,964	103,78
260,175	-31,61
260,387	-66,86
260,598	31,28
260,809	2,44
261,021	-11,18
261,232	-6,78
261,444	16,06
261,655	40,49
261,866	35,69
262,078	25,27
262,289	32,88
262,5	-15,59
262,712	-22,4
262,923	3,64
263,134	-51,24
263,345	34,88
263,557	-64,86
263,768	-38,42
263,979	-20,4
264,191	-22
264,402	-50,84
264,613	20,46
264,824	0,43
265,035	-30,01
265,247	29,28
265,458	-19,19
265,669	-13,19
265,88	10,05
266,091	-12,38
266,302	49,3
266,514	-62,06
266,725	-40,02
266,936	2,44
267,147	-5,98
267,358	6,84
267,569	53,31
267,78	20,86
267,991	-6,78
268,202	62,52
268,414	24,87
268,625	48,1
268,836	-40,02
269,047	76,94
269,258	-55,65
269,469	-26
269,68	42,09
269,891	-12,79
270,102	66,53
270,313	-29,21
270,524	21,26
270,735	4,84
270,945	-1,57
271,156	48,1
271,367	55,71
271,578	46,1
271,789	-41,63
272	52,51
272,211	42,49
272,422	6,84
272,633	48,9
272,844	-34,02
273,054	-48,84
273,265	-3,97
273,476	-13,19
273,687	-26,81
273,898	-30,01
274,109	-18,79
274,319	-15,59
274,53	83,35
274,741	35,28
274,952	5,24
275,162	68,53
275,373	26,47
275,584	-2,77
275,795	-41,63
276,005	8,45
276,216	-1,97
276,427	10,05
276,637	-39,22
276,848	-10,78
277,059	-70,07
277,269	8,85
277,48	20,86
277,691	9,65
277,901	2,84
278,112	-15,99
278,323	-13,19
278,533	22,87
278,744	30,88
278,954	-30,01
279,165	20,46
279,376	31,68
279,586	-31,21
279,797	17,66
280,007	0,43
280,218	18,46
280,428	60,92
280,639	47,3
280,849	16,46
281,06	-17,19
281,27	-38,42
281,481	15,26
281,691	45,7
281,902	-25,2
282,112	2,44
282,322	90,16
282,533	-14,79
282,743	34,48
282,954	38,49
283,164	34,08
283,374	48,1
283,585	65,73
283,795	-46,03
284,006	13,65
284,216	-4,77
284,426	54,91
284,637	24,87
284,847	-30,01
285,057	48,1
285,268	53,31
285,478	8,45
285,688	36,49
285,898	6,84
286,109	36,09
286,319	-12,38
286,529	37,69
286,739	-13,59
286,95	39,29
287,16	38,09
287,37	77,75
287,58	-20,8
287,79	62,52
288,001	33,28
288,211	34,88
288,421	22,47
288,631	48,9
288,841	15,66
289,051	1,64
289,261	42,9
289,471	-39,22
289,682	-29,61
289,892	-9,18
290,102	-15,19
290,312	-31,21
290,522	23,67
290,732	69,33
290,942	27,27
291,152	4,44
291,362	65,73
291,572	-31,21
291,782	1,64
291,992	97,78
292,202	2,84
292,412	-15,59
292,622	34,88
292,832	78,55
293,042	-13,19
293,252	-13,99
293,462	55,71
293,672	8,45
293,881	48,9
294,091	-11,58
294,301	-9,18
294,511	52,11
294,721	130,22
294,931	98,58
295,141	-10,78
295,35	47,7
295,56	-4,77
295,77	21,66
295,98	-10,38
296,19	29,68
296,4	37,29
296,609	-14,39
296,819	40,09
297,029	37,69
297,239	26,87
297,448	46,5
297,658	18,06
297,868	76,54
298,077	-7,58
298,287	6,04
298,497	23,67
298,706	-5,57
298,916	11,25
299,126	45,3
299,335	20,86
299,545	42,9
299,755	-3,57
299,964	25,27
300,174	95,77
300,384	92,97
300,593	45,7
300,803	0,43
301,012	45,7
301,222	47,3
301,431	15,66
301,641	1,24
301,851	74,14
302,06	59,32
302,27	41,29
302,479	30,08
302,689	39,29
302,898	-7,58
303,107	30,48
303,317	54,91
303,526	68,93
303,736	103,38
303,945	58,52
304,155	13,65
304,364	65,73
304,574	36,09
304,783	-0,37
304,992	31,28
305,202	13,25
305,411	36,09
305,62	35,69
305,83	75,74
306,039	40,09
306,248	39,29
306,458	-1,17
306,667	-78,88
306,876	19,66
307,086	60,52
307,295	10,85
307,504	38,09
307,713	34,08
307,923	-47,64
308,132	38,09
308,341	12,85
308,55	25,27
308,76	15,26
308,969	24,47
309,178	65,33
309,387	82,95
309,596	-0,37
309,805	72,94
310,015	18,86
310,224	27,27
310,433	8,85
310,642	-17,19
310,851	40,89
311,06	37,29
311,269	76,94
311,478	60,52
311,687	62,52
311,896	219,95
312,106	298,47
312,315	292,06
312,524	317,69
312,733	344,53
312,942	159,06
313,151	203,93
313,36	70,14
313,569	96,57
313,778	37,69
313,987	16,46
314,195	62,12
314,404	65,33
314,613	30,88
314,822	80,95
315,031	14,05
315,24	-7,18
315,449	139,03
315,658	-8,38
315,867	-0,37
316,076	2,44
316,284	51,31
316,493	102,18
316,702	49,3
316,911	69,33
317,12	35,69
317,329	72,54
317,537	98,98
317,746	-106,92
317,955	48,9
318,164	53,71
318,372	7,64
318,581	65,73
318,79	30,08
318,999	12,85
319,207	31,68
319,416	-37,62
319,625	25,67
319,833	49,3
320,042	42,09
320,251	50,11
320,459	-12,38
320,668	26,47
320,877	62,92
321,085	4,04
321,294	-40,02
321,502	33,28
321,711	28,47
321,92	82,95
322,128	20,86
322,337	-14,39
322,545	80,15
322,754	70,14
322,962	25,27
323,171	8,04
323,379	-33,62
323,588	70,14
323,796	3,64
324,005	41,69
324,213	57,32
324,422	88,96
324,63	-7,58
324,839	36,09
325,047	16,46
325,256	36,09
325,464	85,76
325,672	96,17
325,881	11,65
326,089	65,73
326,297	52,91
326,506	32,48
326,714	92,57
326,923	59,72
327,131	36,89
327,339	72,14
327,548	77,35
327,756	34,08
327,964	55,31
328,172	47,7
328,381	68,93
328,589	96,57
328,797	43,7
329,005	84,56
329,214	2,44
329,422	70,94
329,63	39,69
329,838	189,51
330,046	66,13
330,255	52,11
330,463	79,75
330,671	52,91
330,879	186,3
331,087	55,31
331,295	110,59
331,503	143,44
331,712	77,75
331,92	104,99
332,128	94,17
332,336	121,41
332,544	66,93
332,752	156,66
332,96	190,31
333,168	245,19
333,376	163,87
333,584	302,87
333,792	327,71
334	250
334,208	173,89
334,416	201,12
334,624	114,6
334,832	115,8
335,04	115,4
335,248	140,24
335,456	131,02
335,664	106,59
335,872	103,38
336,08	61,72
336,287	125,01
336,495	197,92
336,703	120,21
336,911	172,28
337,119	98,98
337,327	192,31
337,535	175,89
337,742	115,4
337,95	169,88
338,158	166,67
338,366	78,95
338,573	145,84
338,781	159,87
338,989	200,72
339,197	200,72
339,404	138,63
339,612	158,26
339,82	124,61
340,028	148,25
340,235	217,95
340,443	158,66
340,651	215,15
340,858	56,92
341,066	175,89
341,274	208,74
341,481	234,77
341,689	206,73
341,896	173,89
342,104	237,58
342,312	187,1
342,519	221,15
342,727	202,33
342,934	197,12
343,142	229,97
343,349	159,06
343,557	273,23
343,765	140,24
343,972	253,6
344,18	206,33
344,387	213,94
344,594	249,6
344,802	301,27
345,009	220,35
345,217	233,17
345,424	276,03
345,632	209,94
345,839	218,75
346,047	241,98
346,254	226,76
346,461	265,62
346,669	238,78
346,876	238,78
347,083	299,67
347,291	261,61
347,498	293,66
347,705	292,86
347,913	241,58
348,12	272,03
348,327	266,02
348,535	234,77
348,742	253,6
348,949	268,82
349,156	257,61
349,364	250,8
349,571	297,66
349,778	288,45
349,985	234,77
350,192	283,64
350,4	288,45
350,607	320,9
350,814	290,05
351,021	257,21
351,228	308,88
351,435	350,54
351,643	270,83
351,85	302,47
352,057	337,32
352,264	306,88
352,471	342,93
352,678	351,34
352,885	315,29
353,092	298,07
353,299	303,67
353,506	305,28
353,713	345,33
353,92	284,05
354,127	353,35
354,334	299,27
354,541	308,88
354,748	338,12
354,955	382,59
355,162	343,33
355,369	350,14
355,576	427,85
355,783	388,6
355,99	331,31
356,197	262,81
356,404	341,33
356,611	343,73
356,817	315,29
357,024	346,54
357,231	419,04
357,438	328,51
357,645	366,56
357,852	358,95
358,058	387,8
358,265	373,78
358,472	386,99
358,679	381,39
358,885	345,73
359,092	413,83
359,299	349,74
359,506	355,75
359,712	378,98
359,919	389,8
360,126	373,37
360,333	367,77
360,539	427,45
360,746	419,84
360,953	448,68
361,159	369,37
361,366	371,37
361,572	452,69
361,779	452,69
361,986	456,7
362,192	472,32
362,399	534,01
362,605	535,61
362,812	556,44
363,019	705,06
363,225	930,18
363,432	1945,25
363,638	4486,14
363,845	10711,16
364,051	16184,69
364,258	19793,53
364,464	21227,61
364,671	19733,84
364,877	14842,35
365,084	10327,4
365,29	7906,29
365,496	6048,4
365,703	4754,93
365,909	3954,97
366,116	3001,99
366,322	1906
366,528	1291,91
366,735	942,2
366,941	746,72
367,147	632,95
367,354	681,42
367,56	526,8
367,766	504,77
367,973	504,36
368,179	421,84
368,385	427,45
368,592	473,12
368,798	429,06
369,004	362,96
369,21	391,8
369,417	434,26
369,623	349,74
369,829	402,22
370,035	379,38
370,241	407,42
370,448	354,95
370,654	358,95
370,86	303,27
371,066	360,96
371,272	386,59
371,478	347,74
371,684	369,37
371,891	382,59
372,097	347,74
372,303	302,07
372,509	325,3
372,715	294,86
372,921	292,86
373,127	326,51
373,333	333,72
373,539	275,23
373,745	320,5
373,951	338,12
374,157	305,28
374,363	326,51
374,569	354,15
374,775	328,91
374,981	322,5
375,187	259,61
375,393	363,76
375,599	351,34
375,804	335,72
376,01	333,72
376,216	387,39
376,422	320,5
376,628	376,98
376,834	347,74
377,04	388,2
377,246	334,12
377,451	365,76
377,657	313,69
377,863	437,47
378,069	326,91
378,274	472,72
378,48	468,71
378,686	495,55
378,892	466,31
379,097	482,33
379,303	481,93
379,509	477,12
379,715	544,82
379,92	521,19
380,126	458,3
380,332	418,24
380,537	441,47
380,743	513,58
380,949	395,81
381,154	393,8
381,36	364,16
381,565	371,77
381,771	400,61
381,977	356,95
382,182	375,38
382,388	401,42
382,593	374,98
382,799	358,55
383,004	307,68
383,21	320,9
383,415	240,78
383,621	286,05
383,826	288,85
384,032	351,74
384,237	238,78
384,443	252,4
384,648	231,97
384,854	316,09
385,059	241,98
385,265	259,61
385,47	223,56
385,675	296,86
385,881	289,65
386,086	197,52
386,291	209,14
386,497	297,66
386,702	179,09
386,907	233,17
387,113	189,11
387,318	258,81
387,523	183,5
387,729	215,15
387,934	243,19
388,139	237,18
388,344	212,74
388,55	308,48
388,755	174,69
388,96	239,18
389,165	290,45
389,371	279,24
389,576	184,7
389,781	285,65
389,986	221,96
390,191	291,66
390,396	211,54
390,601	227,96
390,807	202,33
391,012	227,56
391,217	193,11
391,422	195,92
391,627	186,7
391,832	73,74
392,037	258,81
392,242	252
392,447	185,9
392,652	136,23
392,857	217,55
393,062	170,68
393,267	199,92
393,472	151,85
393,677	168,28
393,882	175,89
394,087	227,96
394,292	258,41
394,497	236,78
394,702	168,28
394,907	206,33
395,112	180,7
395,317	158,26
395,521	149,45
395,726	149,05
395,931	168,68
396,136	186,7
396,341	106,99
396,546	167,48
396,75	168,28
396,955	170,68
397,16	142,64
397,365	194,32
397,57	186,3
397,774	192,71
397,979	202,33
398,184	140,64
398,389	250,4
398,593	215,55
398,798	214,74
399,003	193,11
399,207	169,48
399,412	222,76
399,617	142,64
399,821	164,67
400,026	295,66
400,231	278,04
400,435	246,39
400,64	222,76
400,844	186,3
401,049	236,78
401,254	262,41
401,458	279,24
401,663	299,67
401,867	368,17
402,072	391,8
402,276	444,28
402,481	469,11
402,685	569,26
402,89	979,45
403,094	2441,57
403,299	6799,09
403,503	15216,09
403,708	23322,24
403,912	25410,47
404,116	26329
404,321	23290,19
404,525	15058,66
404,73	7468,86
404,934	3977,4
405,138	2340,23
405,343	1681,27
405,547	1069,18
405,751	799,99
405,956	598,9
406,16	650,98
406,364	847,66
406,569	1484,99
406,773	2171,58
406,977	2664,3
407,181	2889,42
407,386	2665,1
407,59	1822,68
407,794	1129,27
407,998	634,15
408,202	448,68
408,407	356,95
408,611	327,31
408,815	263,21
409,019	216,75
409,223	275,23
409,427	266,82
409,632	325,71
409,836	305,28
410,04	231,97
410,244	282,44
410,448	252
410,652	324,1
410,856	235,98
411,06	299,67
411,264	300,07
411,468	226,76
411,672	254,8
411,876	319,7
412,08	254
412,284	271,63
412,488	246,39
412,692	343,33
412,896	227,16
413,1	297,26
413,304	252,8
413,508	312,09
413,712	286,45
413,916	240,78
414,12	255,2
414,323	278,44
414,527	321,7
414,731	331,71
414,935	433,46
415,139	507,57
415,343	450,29
415,546	496,75
415,75	365,76
415,954	382,19
416,158	258,41
416,361	186,3
416,565	244,39
416,769	281,24
416,973	261,21
417,176	312,09
417,38	179,49
417,584	219,55
417,788	293,66
417,991	255,6
418,195	229,17
418,398	268,42
418,602	308,48
418,806	354,15
419,009	368,17
419,213	454,69
419,417	462,3
419,62	364,96
419,824	346,94
420,027	238,38
420,231	166,27
420,434	179,89
420,638	163,47
420,841	213,54
421,045	206,73
421,248	187,1
421,452	172,68
421,655	155,06
421,859	219,15
422,062	135,43
422,266	204,33
422,469	163,87
422,673	199,52
422,876	111,39
423,079	136,63
423,283	164,67
423,486	149,85
423,689	107,39
423,893	235,57
424,096	288,05
424,299	256,41
424,503	166,67
424,706	199,12
424,909	216,35
425,113	238,38
425,316	288,45
425,519	345,33
425,722	372,57
425,926	314,09
426,129	356,15
426,332	344,13
426,535	357,35
426,739	284,85
426,942	264,02
427,145	305,68
427,348	275,63
427,551	242,79
427,754	284,85
427,957	246,39
428,161	254
428,364	298,47
428,567	229,57
428,77	249,19
428,973	293,26
429,176	316,09
429,379	328,11
429,582	214,34
429,785	307,28
429,988	281,64
430,191	358,55
430,394	257,61
430,597	258,41
430,8	318,09
431,003	351,34
431,206	268,82
431,409	331,31
431,612	267,62
431,815	426,25
432,018	507,57
432,221	457,9
432,423	602,51
432,626	620,53
432,829	832,84
433,032	1075,99
433,235	1209,39
433,438	1349,59
433,64	1569,11
433,843	2107,89
434,046	2977,95
434,249	6776,26
434,452	19809,55
434,654	42897,42
434,857	62028,75
435,06	64170,66
435,263	64557,62
435,465	64563,22
435,668	64238,35
435,871	45402,25
436,073	16329,3
436,276	8144,64
436,479	4734,1
436,681	3236,32
436,884	2078,65
437,087	1480,18
437,289	1054,76
437,492	872,1
437,694	751,92
437,897	557,64
438,1	596,5
438,302	515,18
438,505	545,22
438,707	437,07
438,91	433,06
439,112	413,83
439,315	403,82
439,517	418,64
439,72	350,54
439,922	343,33
440,125	330,51
440,327	330,91
440,529	307,68
440,732	279,64
440,934	320,9
441,137	262,81
441,339	224,36
441,541	222,36
441,744	274,43
441,946	252
442,148	246,39
442,351	259,21
442,553	216,35
442,755	162,27
442,958	215,95
443,16	199,52
443,362	215,55
443,565	234,77
443,767	208,74
443,969	142,64
444,171	267,22
444,373	239,58
444,576	202,73
444,778	196,72
444,98	181,1
445,182	246,79
445,384	125,42
445,586	247,59
445,789	250
445,991	198,32
446,193	262,81
446,395	208,74
446,597	155,46
446,799	234,37
447,001	249,6
447,203	147,45
447,405	127,42
447,607	185,1
447,809	223,16
448,011	123,41
448,213	193,91
448,415	147,45
448,617	214,74
448,819	128,22
449,021	126,62
449,223	270,02
449,425	270,02
449,627	213,54
449,829	148,65
450,031	191,91
450,233	235,17
450,435	243,19
450,636	203,13
450,838	222,76
451,04	169,88
451,242	181,1
451,444	182,3
451,646	195,12
451,847	165,87
452,049	214,34
452,251	205,93
452,453	236,78
452,654	183,9
452,856	191,11
453,058	221,96
453,26	167,08
453,461	143,04
453,663	139,03
453,865	187,1
454,066	151,05
454,268	173,48
454,47	194,32
454,671	199,12
454,873	206,33
455,074	151,05
455,276	157,86
455,478	179,89
455,679	249,19
455,881	225,56
456,082	207,13
456,284	183,1
456,485	203,93
456,687	218,75
456,888	166,27
457,09	187,1
457,291	211,14
457,493	130,62
457,694	151,85
457,896	165,47
458,097	209,94
458,299	163,87
458,5	204,73
458,701	187,91
458,903	266,02
459,104	211,14
459,306	211,94
459,507	206,33
459,708	193,11
459,91	201,53
460,111	200,72
460,312	177,89
460,514	243,19
460,715	228,36
460,916	205,13
461,117	213,94
461,319	187,1
461,52	150,65
461,721	193,51
461,922	155,46
462,124	237,18
462,325	196,32
462,526	209,14
462,727	230,77
462,928	274,43
463,129	229,57
463,331	216,35
463,532	204,73
463,733	308,48
463,934	299,27
464,135	292,06
464,336	254,4
464,537	338,52
464,738	250,8
464,939	268,42
465,14	267,62
465,341	326,91
465,542	217,15
465,743	297,26
465,944	357,35
466,145	389,8
466,346	391,8
466,547	508,77
466,748	387,39
466,949	392,6
467,15	429,06
467,351	333,32
467,552	337,32
467,753	293,26
467,953	282,04
468,154	220,75
468,355	273,23
468,556	157,86
468,757	240,38
468,958	197,12
469,158	222,36
469,359	252,4
469,56	276,83
469,761	298,07
469,962	332,52
470,162	324,9
470,363	279,24
470,564	366,16
470,764	274,83
470,965	380,18
471,166	328,91
471,366	345,33
471,567	250,8
471,768	407,82
471,968	345,33
472,169	353,75
472,37	392,2
472,57	388,2
472,771	386,59
472,971	370,17
473,172	443,88
473,373	411,03
473,573	401,82
473,774	436,27
473,974	447,88
474,175	439,07
474,375	369,77
474,576	475,12
474,776	410,23
474,977	415,44
475,177	512,38
475,377	463,51
475,578	366,16
475,778	452,69
475,979	450,69
476,179	497,15
476,379	539,62
476,58	543,62
476,78	589,69
476,981	566,45
477,181	588,49
477,381	667,8
477,582	689,03
477,782	749,12
477,982	798,79
478,182	892,93
478,383	956,22
478,583	1053,16
478,783	1013,1
478,983	1182,95
479,184	1302,32
479,384	1368,02
479,584	1434,11
479,784	1634,8
479,984	1877,56
480,184	1857,93
480,385	2093,87
480,585	2453,19
480,785	2553,74
480,985	2882,21
481,185	3211,49
481,385	3577,22
481,585	3928,13
481,785	4590,69
481,985	4937,99
482,185	5713,52
482,385	6120,11
482,585	6865,19
482,785	7711,61
482,985	8273,23
483,185	9146,49
483,385	9918,81
483,585	10633,05
483,785	11448,23
483,985	12009,44
484,185	13349,79
484,385	14136,13
484,585	15350,29
484,785	16384,99
484,985	18034,98
485,185	18918,66
485,384	20163,26
485,584	21109,03
485,784	21566,9
485,984	21885,36
486,184	22434,55
486,383	22454,98
486,583	22383,68
486,783	21908,19
486,983	21760,38
487,183	21196,36
487,382	20983,25
487,582	20288,64
487,782	19832,78
487,981	18999,17
488,181	18617,02
488,381	17671,65
488,58	17348,38
488,78	16615,72
488,98	16173,48
489,179	15519,73
489,379	15421,59
489,579	14739
489,778	15072,68
489,978	14470,21
490,177	14386,49
490,377	14570,76
490,576	14321,99
490,776	14308,37
490,975	14351,64
491,175	13870,14
491,374	13600,15
491,574	13055,76
491,773	12677,61
491,973	12337,12
492,172	12187,7
492,372	11695,79
492,571	11489,49
492,771	11074,89
492,97	11040,44
493,169	10439,17
493,369	10627,44
493,568	9986,91
493,767	9885,16
493,967	9497
494,166	9449,73
494,365	9151,3
494,565	8888,12
494,764	8705,05
494,963	8509,97
495,163	8341,73
495,362	8120,61
495,561	7820,57
495,76	7902,29
495,959	7311,43
496,159	7268,57
496,358	7037,43
496,557	7021,01
496,756	6633,25
496,955	6515,08
497,155	6378,48
497,354	6037,59
497,553	5895,38
497,752	5733,95
497,951	5423,9
498,15	5333,36
498,349	4940,8
498,548	4844,66
498,747	4649,97
498,946	4464,1
499,145	4246,59
499,344	4212,14
499,543	3977
499,742	3835,59
499,941	3615,67
500,14	3459,85
500,339	3173,83
500,538	3188,26
500,737	3046,85
500,936	2901,44
501,135	2760,43
501,334	2705,56
501,533	2554,54
501,732	2519,29
501,931	2261,71
502,129	2223,26
502,328	2045,4
502,527	2042,99
502,726	1919,22
502,925	1837,1
503,123	1797,44
503,322	1690,88
503,521	1649,22
503,72	1574,32
503,919	1468,16
504,117	1474,17
504,316	1333,97
504,515	1314,74
504,713	1310,73
504,912	1202,58
505,111	1196,57
505,309	1126,87
505,508	1022,72
505,707	1107,64
505,905	975,05
506,104	1034,33
506,302	941,4
506,501	935,79
506,7	896,13
506,898	879,31
507,097	851,67
507,295	843,26
507,494	845,66
507,692	922,97
507,891	926,58
508,089	909,35
508,288	844,86
508,486	914,56
508,685	842,45
508,883	905,75
509,082	847,66
509,28	895,73
509,478	799,59
509,677	745,51
509,875	811,21
510,073	751,52
510,272	704,25
510,47	695,84
510,669	673,41
510,867	632,95
511,065	678,22
511,263	698,25
511,462	705,46
511,66	682,22
511,858	652,18
512,056	670,2
512,255	660,59
512,453	616,93
512,651	601,3
512,849	702,65
513,048	656,99
513,246	660,19
513,444	672,61
513,642	612,92
513,84	554,84
514,038	539,62
514,236	536,01
514,435	545,22
514,633	498,76
514,831	499,56
515,029	484,74
515,227	535,21
515,425	558,44
515,623	472,72
515,821	601,71
516,019	578,47
516,217	511,57
516,415	544,82
516,613	540,42
516,811	468,71
517,009	566,86
517,207	553,24
517,405	575,67
517,602	471,52
517,8	515,58
517,998	514,38
518,196	494,75
518,394	582,88
518,592	500,76
518,79	495,95
518,987	535,61
519,185	521,99
519,383	509,97
519,581	511,17
519,779	548,83
519,976	489,14
520,174	463,91
520,372	450,29
520,57	498,76
520,767	492,75
520,965	491,15
521,163	448,68
521,36	482,73
521,558	506,77
521,756	443,88
521,953	530
522,151	518,79
522,349	483,13
522,546	518,38
522,744	530
522,941	481,53
523,139	471,92
523,336	532
523,534	556,44
523,731	428,25
523,929	467,91
524,126	568,46
524,324	457,5
524,521	521,59
524,719	568,46
524,916	588,49
525,114	521,59
525,311	599,3
525,509	536,81
525,706	581,28
525,903	596,9
526,101	735,1
526,298	758,33
526,496	764,74
526,693	795,19
526,89	884,11
527,088	891,73
527,285	797,99
527,482	839,25
527,679	765,54
527,877	741,91
528,074	774,76
528,271	797,19
528,468	851,27
528,666	879,31
528,863	926,58
529,06	887,32
529,257	922,17
529,454	970,24
529,652	1010,7
529,849	1035,53
530,046	1051,96
530,243	1031,53
530,44	1087,21
530,637	1310,33
530,834	1182,55
531,031	1313,54
531,228	1427,7
531,425	1733,75
531,622	2039,39
531,819	2451,59
532,016	2906,25
532,213	3578,02
532,41	4256,2
532,607	4711,66
532,804	4836,64
533,001	4924,37
533,198	4683,22
533,395	4405,22
533,592	3982,61
533,789	3898,48
533,986	3739,05
534,183	3773,5
534,38	3751,47
534,576	4004,24
534,773	4101,18
534,97	4483,73
535,167	4666,4
535,364	5244,84
535,561	5608,16
535,757	6301,97
535,954	7055,46
536,151	8188,3
536,348	9297,51
536,544	10746,01
536,741	12043,89
536,938	13610,56
537,134	14626,84
537,331	16052,1
537,528	16582,07
537,724	17543,87
537,921	17955,26
538,118	19747,06
538,314	20400,01
538,511	22856,37
538,707	25179,33
538,904	29175,93
539,101	32759,12
539,297	37877,34
539,494	42456,78
539,69	48818
539,887	55326,64
540,083	62715,35
540,28	63556,57
540,476	64505,14
540,673	64547,2
540,869	64519,16
541,066	64593,27
541,262	64627,32
541,458	64629,32
541,655	64631,32
541,851	64689,41
542,048	64547,2
542,244	64551,21
542,44	64579,25
542,637	64569,23
542,833	64597,27
543,029	64573,24
543,226	64537,19
543,422	64669,38
543,618	64631,32
543,814	64551,21
544,011	64561,22
544,207	64569,23
544,403	64641,34
544,599	64589,26
544,796	64587,26
544,992	64513,15
545,188	64567,23
545,384	64577,24
545,58	64655,36
545,776	64567,23
545,972	64591,27
546,169	64571,24
546,365	64555,21
546,561	64619,31
546,757	64533,18
546,953	64595,27
547,149	64595,27
547,345	64575,24
547,541	64569,23
547,737	64543,2
547,933	64627,32
548,129	64577,24
548,325	64613,3
548,521	64579,25
548,717	64567,23
548,913	64565,23
549,109	64689,41
549,305	64563,22
549,501	64605,29
549,697	64579,25
549,892	64615,3
550,088	64599,28
550,284	64565,23
550,48	64557,22
550,676	64639,33
550,872	64631,32
551,067	64589,26
551,263	64611,29
551,459	64617,3
551,655	64629,32
551,85	64549,2
552,046	64655,36
552,242	64593,27
552,438	64523,17
552,633	64617,3
552,829	42940,68
553,025	23372,31
553,22	11634,5
553,416	10933,08
553,612	10125,11
553,807	9598,75
554,003	8935,39
554,198	8350,14
554,394	7644,31
554,59	7390,75
554,785	6745,81
554,981	6511,47
555,176	6048
555,372	5703,9
555,567	5404,27
555,763	5267,67
555,958	4831,44
556,154	4618,73
556,349	4511,77
556,545	4339,52
556,74	4090,76
556,936	3908,1
557,131	3792,33
557,326	3702,6
557,522	3497,9
557,717	3467,46
557,912	3349,69
558,108	3147,4
558,303	3071,69
558,498	3039,64
558,694	2953,51
558,889	2862,98
559,084	2634,25
559,28	2662,69
559,475	2592,99
559,67	2567,35
559,865	2524,09
560,061	2515,68
560,256	2376,28
560,451	2327,01
560,646	2267,72
560,841	2404,72
561,037	2216,05
561,232	2272,93
561,427	2341,03
561,622	2238,88
561,817	2262,51
562,012	2168,78
562,207	2078,25
562,402	2093,07
562,597	2089,46
562,792	2052,61
562,987	2066,63
563,182	1975,3
563,377	1900,79
563,572	1869,54
563,767	1873,15
563,962	1781,82
564,157	1745,76
564,352	1747,77
564,547	1722,53
564,742	1708,51
564,937	1561,9
565,132	1573,11
565,327	1537,86
565,522	1514,23
565,716	1581,13
565,911	1589,14
566,106	1537,86
566,301	1571,51
566,496	1560,3
566,691	1571,91
566,885	1630
567,08	1547,88
567,275	1552,68
567,47	1572,71
567,664	1578,72
567,859	1623,59
568,054	1643,62
568,248	1490,59
568,443	1572,31
568,638	1583,93
568,832	1483,78
569,027	1408,88
569,222	1385,24
569,416	1313,14
569,611	1223,81
569,805	1235,02
570	1163,32
570,195	1102,03
570,389	1047,95
570,584	1065,98
570,778	1050,36
570,973	1078,8
571,167	1018,31
571,362	1088,41
571,556	1067,18
571,751	1043,15
571,945	965,83
572,139	1039,14
572,334	1028,32
572,528	1053,16
572,723	1076,39
572,917	1078
573,111	1140,89
573,306	1145,69
573,5	1227,41
573,694	1261,46
573,889	1321,15
574,083	1374,43
574,277	1426,1
574,472	1564,3
574,666	1700,5
574,86	1876,35
575,054	2094,27
575,249	2516,48
575,443	4095,17
575,637	8747,11
575,831	13270,07
576,025	16258
576,219	17731,34
576,414	18604,2
576,608	15990,81
576,802	12676,01
576,996	10680,72
577,19	9447,33
577,384	8636,55
577,578	9152,1
577,772	12475,32
577,966	16138,23
578,16	17369,61
578,354	18875,8
578,548	18675,51
578,742	16739,5
578,936	15054,26
579,13	16506,36
579,324	17734,94
579,518	18332,61
579,712	18112,69
579,906	17499,4
580,1	15585,43
580,294	14522,69
580,488	13706,3
580,682	13872,14
580,875	14128,51
581,069	14766,64
581,263	15438,41
581,457	16474,31
581,651	17233,82
581,845	18129,91
582,038	18587,78
582,232	19604,05
582,426	19405,36
582,62	20386,79
582,813	20178,88
583,007	20344,32
583,201	19930,52
583,394	19984,2
583,588	19541,16
583,782	19507,51
583,975	19008,39
584,169	18942,29
584,363	18424,74
584,556	18144,34
584,75	17436,51
584,943	17187,35
585,137	16759,93
585,33	16904,14
585,524	17416,88
585,718	19539,96
585,911	22563,94
586,105	27663,73
586,298	31652,32
586,491	35460,64
586,685	36316,68
586,878	35377,32
587,072	31818,16
587,265	28666,79
587,459	24999,47
587,652	22797,48
587,845	19763,88
588,039	18038,18
588,232	15995,62
588,426	14718,97
588,619	13260,06
588,812	12553,43
589,005	11971,79
589,199	11700,19
589,392	11459,04
589,585	11677,36
589,779	11750,67
589,972	12215,74
590,165	12416,03
590,358	13048,95
590,551	13422,29
590,745	14164,17
590,938	14968,93
591,131	16161,46
591,324	16758,33
591,517	19632,89
591,71	21979,9
591,904	25015,1
592,097	27265,96
592,29	29268,46
592,483	29459,94
592,676	29403,46
592,869	27234,31
593,062	25390,84
593,255	22580,77
593,448	20425,24
593,641	18155,95
593,834	16475,12
594,027	14602,4
594,22	13402,66
594,413	12087,15
594,606	11412,18
594,799	10677,91
594,992	10140,73
595,184	9801,84
595,377	9682,47
595,57	9435,71
595,763	9443,72
595,956	9213,39
596,149	9312,33
596,341	9180,94
596,534	9244,23
596,727	9266,27
596,92	9589,53
597,113	9970,49
597,305	10637,85
597,498	11437,01
597,691	12429,65
597,883	13558,49
598,076	14918,06
598,269	16318,09
598,462	17423,29
598,654	18241,68
598,847	18881
599,039	18742,8
599,232	18451,98
599,425	17418,08
599,617	16357,35
599,81	15283,79
600,002	14161,36
600,195	12774,15
600,387	12199,32
600,58	10986,36
600,772	10170,78
600,965	9187,75
601,157	8573,66
601,35	7949,96
601,542	7568,6
601,735	7027,82
601,927	6947,3
602,12	6467,81
602,312	6479,03
602,504	6324,4
602,697	6327,21
602,889	6479,83
603,082	6649,67
603,274	6867,59
603,466	7013,8
603,659	7062,27
603,851	7249,74
604,043	7327,86
604,235	7553,38
604,428	7418,79
604,62	7741,26
604,812	7859,83
605,004	8115,4
605,197	8249,59
605,389	8715,07
605,581	8760,33
605,773	9367,61
605,965	9741,35
606,157	10217,64
606,349	10550,93
606,542	11355,29
606,734	11914,1
606,926	12982,45
607,118	13717,12
607,31	14924,47
607,502	15963,17
607,694	17881,15
607,886	19338,07
608,078	22066,82
608,27	24223,95
608,462	27876,84
608,654	31650,71
608,846	37802,43
609,038	44009,43
609,23	53867,32
609,422	62650,45
609,614	63494,07
609,805	64238,35
609,997	64669,38
610,189	64485,11
610,381	64621,31
610,573	64573,24
610,765	64567,23
610,957	64571,24
611,148	64597,27
611,34	64603,28
611,532	64597,27
611,724	64663,37
611,915	64619,31
612,107	64637,33
612,299	64601,28
612,491	64635,33
612,682	64687,4
612,874	64531,18
613,066	64579,25
613,257	64561,22
613,449	64581,25
613,64	64597,27
613,832	64569,23
614,024	64551,21
614,215	64675,39
614,407	64603,28
614,598	64575,24
614,79	64645,34
614,981	64587,26
615,173	64575,24
615,364	64523,17
615,556	64543,2
615,747	64635,33
615,939	64557,22
616,13	64555,21
616,322	64683,4
616,513	64593,27
616,705	64559,22
616,896	64659,36
617,087	64693,41
617,279	64551,21
617,47	64559,22
617,661	64619,31
617,853	64597,27
618,044	64523,17
618,235	64553,21
618,427	64625,31
618,618	64551,21
618,809	64589,26
619	64623,31
619,192	64613,3
619,383	64565,23
619,574	64615,3
619,765	64541,19
619,957	64637,33
620,148	64623,31
620,339	64575,24
620,53	64565,23
620,721	64537,19
620,912	64563,22
621,103	64639,33
621,294	48616,11
621,485	30484,62
621,677	16239,97
621,868	16709,46
622,059	16830,03
622,25	17515,02
622,441	17638,8
622,632	18204,82
622,823	18349,43
623,014	18584,57
623,205	18766,84
623,395	18796,48
623,586	18838,94
623,777	19401,36
623,968	18963,52
624,159	19489,49
624,35	19278,38
624,541	19587,23
624,732	19563,99
624,923	19715,81
625,113	19570,8
625,304	19457,84
625,495	19426,99
625,686	19559,19
625,877	19398,95
626,067	19274,37
626,258	18998,77
626,449	18738
626,639	18275,73
626,83	18348,23
627,021	17801,04
627,211	17798,23
627,402	17323,95
627,593	17231,01
627,783	16968,63
627,974	16996,27
628,165	16824,82
628,355	17053,95
628,546	17079,59
628,736	17801,44
628,927	18266,51
629,117	19862,83
629,308	21452,73
629,498	24100,97
629,689	26938,68
629,879	30817,11
630,07	33308,72
630,26	34832,53
630,451	34552,12
630,641	33559,48
630,832	30179,78
631,022	27270,36
631,212	23571,4
631,403	20737,69
631,593	17672,45
631,784	15467,66
631,974	13232,42
632,164	11571,61
632,355	9867,14
632,545	8671,4
632,735	7605,06
632,925	6732,19
633,116	6056,41
633,306	5535,66
633,496	5169,93
633,686	4992,07
633,876	4710,86
634,067	4404,82
634,257	4218,95
634,447	4116,8
634,637	3959,37
634,827	3800,74
635,017	3591,64
635,208	3624,89
635,398	3510,32
635,588	3517,53
635,778	3254,75
635,968	3381,33
636,158	3215,49
636,348	3142,59
636,538	3036,84
636,728	3028,02
636,918	2932,28
637,108	2984,76
637,298	2817,32
637,488	2774,05
637,678	2675,51
637,868	2657,89
638,057	2665,1
638,247	2537,71
638,437	2559,74
638,627	2633,45
638,817	2373,87
639,007	2411,93
639,197	2428,35
639,386	2359,05
639,576	2407,52
639,766	2283,74
639,956	2397,91
640,145	2374,68
640,335	2355,85
640,525	2441,17
640,715	2421,54
640,904	2449,58
641,094	2355,05
641,284	2353,04
641,473	2327,41
641,663	2414,33
641,853	2340,23
642,042	2382,29
642,232	2343,43
642,421	2356,25
642,611	2496,45
642,801	2457,2
642,99	2441,97
643,18	2465,61
643,369	2446,38
643,559	2487,24
643,748	2570,56
643,938	2444,38
644,127	2383,49
644,317	2383,89
644,506	2366,66
644,695	2425,95
644,885	2367,87
645,074	2318,19
645,264	2317,39
645,453	2341,43
645,642	2298,97
645,832	2301,37
646,021	2287,75
646,21	2305,38
646,4	2176,39
646,589	2271,73
646,778	2272,13
646,967	2246,09
647,157	2185,6
647,346	2384,29
647,535	2287,35
647,724	2389,9
647,913	2462
648,103	2528,1
648,292	2692,74
648,481	3012
648,67	3364,51
648,859	3977
649,048	5010,1
649,237	6150,55
649,427	7171,63
649,616	8311,68
649,805	8578,07
649,994	8693,03
650,183	8244,79
650,372	7908,3
650,561	7059,07
650,75	6690,53
650,939	5959,07
651,128	5521,64
651,317	5034,93
651,506	4706,46
651,694	4587,48
651,883	4677,61
652,072	4677,21
652,261	4850,66
652,45	4616,73
652,639	4583,48
652,828	4321,5
653,016	4128,82
653,205	3709,01
653,394	3592,04
653,583	3365,71
653,772	3271,58
653,96	3029,22
654,149	2925,87
654,338	2810,11
654,527	2708,36
654,715	2603,81
654,904	2623,84
655,093	2435,56
655,281	2366,66
655,47	2320,6
655,658	2319,4
655,847	2279,34
656,036	2321,8
656,224	2364,26
656,413	2463,6
656,601	2528,9
656,79	2766,44
656,978	2808,1
657,167	2868,59
657,355	2784,47
657,544	2729,19
657,732	2579,37
657,921	2451,99
658,109	2210,04
658,298	2185,6
658,486	2021,36
658,675	1969,69
658,863	1949,66
659,051	1813,86
659,24	1658,44
659,428	1620,38
659,616	1617,58
659,805	1626,39
659,993	1511,42
660,181	1581,53
660,37	1728,14
660,558	1808,25
660,746	2215,65
660,934	2635,05
661,123	3209,89
661,311	3977,8
661,499	4601,1
661,687	5036,93
661,875	5123,06
662,064	5050,15
662,252	4692,03
662,44	4352,74
662,628	4031,88
662,816	3806,35
663,004	3543,17
663,192	3199,47
663,38	2985,56
663,568	2710,76
663,756	2556,14
663,944	2347,04
664,132	2173,98
664,32	2033,38
664,508	1909,2
664,696	1815,06
664,884	1759,38
665,072	1675,26
665,26	1576,32
665,448	1732,14
665,636	1614,37
665,824	1650,43
666,012	1607,56
666,199	1644,02
666,387	1649,22
666,575	1623,19
666,763	1665,25
666,951	1715,32
667,139	1690,88
667,326	1693,29
667,514	1549,08
667,702	1565,1
667,889	1566,7
668,077	1531,85
668,265	1461,75
668,453	1436,12
668,64	1421,69
668,828	1430,51
669,016	1399,26
669,203	1439,32
669,391	1389,65
669,578	1424,9
669,766	1339,17
669,954	1327,16
670,141	1351,99
670,329	1286,7
670,516	1347,59
670,704	1402,47
670,891	1324,75
671,079	1286,3
671,266	1374,83
671,454	1280,69
671,641	1305,13
671,828	1264,27
672,016	1125,67
672,203	1183,75
672,391	1219
672,578	1181,75
672,765	1101,63
672,953	1153,71
673,14	1170,93
673,327	1135,28
673,515	1136,08
673,702	1078,8
673,889	1049,96
674,077	1045,55
674,264	1118,05
674,451	1132,07
674,638	1132,47
674,825	1054,36
675,013	1088,81
675,2	1108,44
675,387	981,46
675,574	928,98
675,761	997,48
675,948	1047,55
676,136	1080
676,323	1001,89
676,51	941,4
676,697	1089,61
676,884	966,23
677,071	1057,97
677,258	1051,56
677,445	1007,09
677,632	1004,29
677,819	965,83
678,006	1025,12
678,193	1051,16
678,38	1061,97
678,567	1106,44
678,754	1187,35
678,94	1241,43
679,127	1207,38
679,314	1281,89
679,501	1256,65
679,688	1340,78
679,875	1296,31
680,062	1382,84
680,248	1322,35
680,435	1293,91
680,622	1344,78
680,809	1287,1
680,995	1281,49
681,182	1236,63
681,369	1159,31
681,556	1185,75
681,742	1210,59
681,929	1172,93
682,116	1185,35
682,302	1087,21
682,489	1119,66
682,675	1037,54
682,862	1168,93
683,049	1147,7
683,235	1122,06
683,422	1063,98
683,608	1140,89
683,795	1067,18
683,981	1008,29
684,168	1124,06
684,354	1256,65
684,541	1233,42
684,727	1275,48
684,914	1348,39
685,1	1347,19
685,287	1475,77
685,473	1644,42
685,659	1899,99
685,846	2163,57
686,032	2475,62
686,218	2894,63
686,405	3329,26
686,591	3650,53
686,777	4019,06
686,964	4111,19
687,15	4262,21
687,336	4079,95
687,522	3955,37
687,709	3646,52
687,895	3487,49
688,081	3087,71
688,267	2813,31
688,454	2535,31
688,64	2294,16
688,826	2036,99
689,012	1775,81
689,198	1548,28
689,384	1456,14
689,57	1357,2
689,756	1283,49
689,942	1226,61
690,128	1181,35
690,314	1077,19
690,501	922,17
690,687	935,39
690,873	882,11
691,058	806,4
691,244	737,9
691,43	685,43
691,616	791,98
691,802	800,79
691,988	1045,55
692,174	1252,65
692,36	1811,46
692,546	2226,86
692,732	2843,76
692,917	3095,32
693,103	3252,35
693,289	3098,12
693,475	2810,91
693,661	2341,43
693,846	2147,55
694,032	1687,28
694,218	1644,82
694,404	1493,4
694,589	1285,5
694,775	1174,14
694,961	1144,89
695,146	1569,51
695,332	3136,98
695,518	4500,96
695,703	5207,58
695,889	5598,55
696,074	5656,23
696,26	4777,76
696,446	3529,55
696,631	2924,27
696,817	2566,95
697,002	2246,09
697,188	1908,8
697,373	1623,19
697,559	1306,73
697,744	1086,81
697,93	995,88
698,115	780,36
698,3	677,42
698,486	631,35
698,671	668,6
698,857	558,84
699,042	406,22
699,227	621,33
699,413	450,29
699,598	511,98
699,783	528
699,969	634,95
700,154	501,16
700,339	511,57
700,524	539,62
700,71	537,61
700,895	507,17
701,08	623,34
701,265	580,47
701,45	656,99
701,636	696,64
701,821	670,61
702,006	746,72
702,191	853,27
702,376	845,26
702,561	966,23
702,746	1101,63
702,931	1254,25
703,116	1310,33
703,301	1358,8
703,486	1506,62
703,671	1484,18
703,856	1576,32
704,041	1739,35
704,226	1932,03
704,411	2049
704,596	2307,78
704,781	2649,07
704,966	3209,09
705,151	3791,53
705,336	4891,92
705,521	6733,79
705,706	8993,87
705,89	10199,62
706,075	11465,85
706,26	12179,29
706,445	11900,08
706,63	10826,13
706,814	10228,46
706,999	9175,73
707,184	8684,22
707,368	7998,43
707,553	7943,95
707,738	8199,92
707,923	9447,73
708,107	10142,74
708,292	11011,2
708,476	11130,57
708,661	10580,97
708,846	9436,51
709,03	8309,28
709,215	6971,34
709,399	6162,57
709,584	5219,2
709,768	4769,75
709,953	4194,11
710,137	3861,63
710,322	3608,46
710,506	3709,81
710,691	4165,67
710,875	4917,96
711,06	5737,15
711,244	6722,18
711,429	7497,3
711,613	8268,02
711,797	8342,13
711,982	7992,02
712,166	7387,14
712,35	6600
712,535	5775,21
712,719	5029,32
712,903	4206,93
713,088	3677,36
713,272	3119,36
713,456	2734,4
713,64	2533,71
713,824	2208,03
714,009	2070,23
714,193	1772,6
714,377	1534,66
714,561	1262,66
714,745	1080,8
714,929	1003,49
715,113	866,89
715,298	737,1
715,482	719,48
715,666	536,01
715,85	494,35
716,034	470,32
716,218	376,18
716,402	409,83
716,586	366,16
716,77	358,55
716,954	361,36
717,138	328,91
717,322	268,42
717,506	318,9
717,689	306,08
717,873	240,38
718,057	295,26
718,241	279,24
718,425	267,22
718,609	275,63
718,793	286,05
718,976	282,84
719,16	320,1
719,344	325,71
719,528	339,33
719,711	271,23
719,895	291,26
720,079	312,89
720,263	305,28
720,446	202,33
720,63	223,16
720,814	139,84
720,997	255,2
721,181	220,75
721,364	281,24
721,548	256
721,732	251,2
721,915	302,07
722,099	223,96
722,282	251,2
722,466	243,99
722,649	137,83
722,833	213,54
723,016	193,91
723,2	206,73
723,383	190,31
723,567	177,49
723,75	197,12
723,934	262,01
724,117	189,11
724,3	198,32
724,484	219,15
724,667	197,52
724,85	210,34
725,034	233,57
725,217	197,92
725,4	229,57
725,584	258,41
725,767	155,06
725,95	386,99
726,133	681,02
726,317	1030,33
726,5	1210,19
726,683	1335,17
726,866	1403,67
727,049	1239,03
727,232	906,55
727,416	750,72
727,599	693,44
727,782	534,01
727,965	479,13
728,148	557,64
728,331	471,92
728,514	398,21
728,697	332,92
728,88	231,17
729,063	284,45
729,246	238,38
729,429	235,98
729,612	232,77
729,795	203,13
729,978	239,98
730,161	223,96
730,344	211,94
730,526	195,92
730,709	269,62
730,892	247,19
731,075	176,69
731,258	172,68
731,441	223,56
731,623	143,04
731,806	163,07
731,989	194,32
732,172	127,42
732,354	172,68
732,537	274,43
732,72	123,01
732,903	198,32
733,085	160,67
733,268	179,89
733,451	121,41
733,633	176,69
733,816	155,86
733,998	119,81
734,181	78,15
734,364	188,31
734,546	188,31
734,729	163,07
734,911	161,47
735,094	174,69
735,276	193,91
735,459	143,44
735,641	121,41
735,824	160,67
736,006	187,1
736,188	242,38
736,371	202,33
736,553	265,22
736,736	319,7
736,918	408,63
737,1	1239,03
737,283	3069,28
737,465	4882,31
737,647	5782,82
737,83	6453,79
738,012	6700,95
738,194	5647,42
738,376	4027,87
738,559	3302,42
738,741	2773,25
738,923	2443,98
739,105	2090,26
739,287	1663,64
739,469	1385,24
739,652	1097,62
739,834	845,26
740,016	717,87
740,198	622,14
740,38	446,28
740,562	375,38
740,744	413,83
740,926	280,84
741,108	292,06
741,29	316,09
741,472	377,78
741,654	415,03
741,836	406,22
742,018	427,05
742,2	478,73
742,382	387,39
742,564	439,47
742,746	425,85
742,928	373,37
743,109	299,67
743,291	209,14
743,473	257,61
743,655	187,51
743,837	215,95
744,019	205,53
744,2	192,31
744,382	169,88
744,564	108,99
744,746	126,22
744,927	159,06
745,109	175,89
745,291	214,34
745,472	192,71
745,654	216,75
745,836	247,59
746,017	237,18
746,199	267,62
746,38	255,6
746,562	132,23
746,744	227,56
746,925	195,92
747,107	202,33
747,288	223,56
747,47	141,44
747,651	116,6
747,833	127,02
748,014	159,06
748,195	214,34
748,377	180,7
748,558	150,65
748,74	185,9
748,921	368,97
749,102	816,02
749,284	2137,13
749,465	3764,69
749,646	4482,53
749,828	4929,58
750,009	5268,07
750,19	5362,61
750,372	6003,14
750,553	6858,78
750,734	7254,95
750,915	7472,47
751,096	7632,3
751,278	6616,02
751,459	4982,46
751,64	3766,69
751,821	3286,4
752,002	2566,15
752,183	2272,13
752,364	1798,24
752,546	1385,64
752,727	1057,57
752,908	834,84
753,089	603,71
753,27	453,89
753,451	348,14
753,632	260,41
753,813	137,43
753,994	173,48
754,175	122,61
754,356	156,26
754,536	120,61
754,717	68,13
754,898	175,89
755,079	144,64
755,26	141,04
755,441	129,42
755,622	83,75
755,802	148,25
755,983	100,58
756,164	103,78
756,345	134,23
756,526	120,61
756,706	119,81
756,887	103,38
757,068	123,41
757,248	189,91
757,429	145,04
757,61	98,98
757,79	119,81
757,971	119,41
758,152	108,99
758,332	59,72
758,513	144,64
758,693	144,24
758,874	165,07
759,055	165,47
759,235	128,22
759,416	137,83
759,596	100,58
759,777	177,89
759,957	75,74
760,137	130,62
760,318	121,01
760,498	131,02
760,679	108,59
760,859	149,45
761,039	171,48
761,22	149,05
761,4	179,49
761,581	277,24
761,761	231,57
761,941	440,27
762,121	1231,82
762,302	4870,69
762,482	12981,25
762,662	20968,43
762,842	24418,63
763,023	28351,13
763,203	28114,79
763,383	24043,29
763,563	16589,68
763,743	13359,8
763,923	11301,62
764,104	9725,33
764,284	7603,05
764,464	6243,88
764,644	4454,89
764,824	3154,61
765,004	1948,46
765,184	1318,74
765,364	838,85
765,544	623,34
765,724	404,22
765,904	378,58
766,084	260,41
766,264	215,55
766,444	255,6
766,624	118,2
766,804	116,2
766,983	227,56
767,163	182,7
767,343	113,8
767,523	161,07
767,703	190,71
767,883	182,7
768,062	68,93
768,242	167,48
768,422	118,2
768,602	128,62
768,781	92,17
768,961	61,72
769,141	110,19
769,32	151,45
769,5	100,98
769,68	110,99
769,859	121,01
770,039	192,71
770,219	120,61
770,398	96,17
770,578	184,7
770,757	138,23
770,937	270,43
771,116	827,63
771,296	2873,8
771,475	5978,3
771,655	8149,05
771,834	9267,87
772,014	10328,21
772,193	9901,59
772,373	7796,54
772,552	5542,87
772,731	4792,98
772,911	4022,26
773,09	3502,31
773,269	2611,82
773,449	1885,97
773,628	1273,88
773,807	822,02
773,987	516,38
774,166	380,59
774,345	281,64
774,524	225,56
774,704	127,42
774,883	137,03
775,062	165,87
775,241	168,68
775,42	103,38
775,6	132,63
775,779	40,49
775,958	118,2
776,137	127,42
776,316	145,44
776,495	110,19
776,674	36,09
776,853	61,32
777,032	81,35
777,211	82,55
777,39	56,11
777,569	95,77
777,748	122,21
777,927	50,91
778,106	54,11
778,285	64,13
778,464	58,92
778,643	77,35
778,822	19,66
779	144,24
779,179	38,09
779,358	52,91
779,537	63,73
779,716	15,66
779,894	39,69
780,073	82,15
780,252	4,84
780,431	60,92
780,609	38,49
780,788	92,17
780,967	29,68
781,145	96,97
781,324	49,71
781,503	8,04
781,681	36,49
781,86	51,71
782,039	55,71
782,217	-5,57
782,396	45,7
782,574	8,45
782,753	99,78
782,931	90,16
783,11	61,72
783,288	-11,58
783,467	94,57
783,645	-17,59
783,824	54,51
784,002	-28,81
784,18	13,65
784,359	93,77
784,537	21,26
784,716	64,13
784,894	105,39
785,072	37,29
785,251	84,96
785,429	20,46
785,607	62,12
785,785	81,35
785,964	54,91
786,142	-102,11
786,32	86,56
786,498	-13,59
786,677	92,97
786,855	35,69
787,033	51,71
787,211	17,66
787,389	66,93
787,567	83,75
787,745	7,64
787,923	84,56
788,102	86,16
788,28	50,11
788,458	27,67
788,636	41,69
788,814	99,38
788,992	92,57
789,17	86,56
789,348	90,56
789,526	110,19
789,703	47,7
789,881	80,95
790,059	56,92
790,237	82,55
790,415	36,49
790,593	82,95
790,771	93,77
790,949	44,9
791,126	101,78
791,304	26,47
791,482	7,64
791,66	30,88
791,837	45,3
792,015	85,36
792,193	39,69
792,371	126,62
792,548	69,73
792,726	95,37
792,904	36,89
793,081	49,3
793,259	46,1
793,436	266,02
793,614	652,98
793,792	2141,54
793,969	4201,72
794,147	5485,18
794,324	6360,05
794,502	6998,58
794,679	6493,05
794,857	5058,57
795,034	3425,8
795,212	2756,03
795,389	2037,79
795,567	1544,27
795,744	1006,29
795,921	679,02
796,099	485,54
796,276	397,01
796,453	311,69
796,631	231,97
796,808	155,46
796,985	131,82
797,163	203,53
797,34	106,59
797,517	172,68
797,694	102,98
797,872	88,96
798,049	92,57
798,226	167,48
798,403	124,61
798,58	151,45
798,757	76,14
798,935	180,7
799,112	115
799,289	152,25
799,466	538,41
799,643	1598,35
799,82	2931,48
799,997	3582,43
800,174	4257,81
800,351	5135,48
800,528	7034,63
800,705	8368,97
800,882	8709,86
801,059	9297,11
801,236	9225,41
801,413	7846,61
801,589	5613,77
801,766	3772,7
801,943	3061,27
802,12	2057,82
802,297	1505,82
802,474	960,63
802,651	695,44
802,827	562,45
803,004	425,45
803,181	378,98
803,358	352,14
803,534	204,33
803,711	154,66
803,888	141,84
804,064	154,26
804,241	106,99
804,418	96,97
804,594	132,23
804,771	77,75
804,947	204,33
805,124	125,42
805,301	196,72
805,477	169,88
805,654	152,25
805,83	54,51
806,007	111,39
806,183	132,63
806,36	154,26
806,536	114,6
806,712	111,8
806,889	88,96
807,065	150,65
807,242	143,84
807,418	131,82
807,594	130,62
807,771	131,42
807,947	143,84
808,123	157,46
808,3	176,29
808,476	132,63
808,652	140,64
808,829	193,91
809,005	328,51
809,181	724,68
809,357	2210,04
809,533	4723,68
809,71	6779,06
809,886	7534,15
810,062	8610,52
810,238	8478,72
810,414	9428,5
810,59	13137,88
810,766	21045,74
810,942	23673,95
811,118	26674,7
811,294	26421,53
811,47	23600,24
811,646	15740,45
811,822	9768,19
811,998	7467,66
812,174	4829,03
812,35	3562,4
812,526	2336,22
812,702	1768,6
812,878	1480,98
813,054	1070,38
813,23	796,39
813,405	711,87
813,581	572,06
813,757	471,92
813,933	399,81
814,109	250,8
814,284	325,71
814,46	209,54
814,636	133,43
814,812	110,59
814,987	116,6
815,163	142,64
815,339	108,99
815,514	63,73
815,69	87,76
815,866	77,35
816,041	55,31
816,217	137,03
816,392	79,35
816,568	99,38
816,743	98,18
816,919	48,5
817,094	97,37
817,27	33,68
817,445	96,17
817,621	15,66
817,796	82,15
817,972	41,29
818,147	6,84
818,322	72,54
818,498	141,84
818,673	80,95
818,849	25,27
819,024	6,04
819,199	83,75
819,375	98,58
819,55	76,14
819,725	90,16
819,9	66,93
820,076	113
820,251	18,06
820,426	93,37
820,601	112,6
820,776	76,94
820,952	86,16
821,127	82,55
821,302	85,36
821,477	46,1
821,652	70,54
821,827	68,53
822,002	31,68
822,177	4,44
822,352	60,92
822,527	63,33
822,702	16,46
822,877	69,33
823,052	27,27
823,227	56,11
823,402	34,88
823,577	76,94
823,752	78,95
823,927	1,64
824,102	116,2
824,277	112,2
824,451	37,69
824,626	1,24
824,801	30,88
824,976	133,43
825,151	91,37
825,325	413,83
825,5	1220,6
825,675	2627,44
825,85	3474,67
826,024	3658,14
826,199	3822,77
826,374	3436,62
826,548	2435,56
826,723	1333,17
826,897	966,63
827,072	674,21
827,247	491,55
827,421	355,35
827,596	320,1
827,77	258,41
827,945	243,99
828,119	146,65
828,294	170,28
828,468	123,01
828,643	114,6
828,817	77,35
828,992	96,57
829,166	30,88
829,34	108,19
829,515	52,51
829,689	53,31
829,864	48,9
830,038	81,75
830,212	70,54
830,386	12,85
830,561	94,17
830,735	34,48
830,909	94,97
831,084	-10,78
831,258	46,5
831,432	56,92
831,606	46,5
831,78	39,69
831,954	92,97
832,129	44,5
832,303	57,72
832,477	30,08
832,651	91,37
832,825	30,88
832,999	92,17
833,173	3,64
833,347	26,87
833,521	4,44
833,695	78,95
833,869	84,16
834,043	50,51
834,217	-2,37
834,391	22,07
834,565	33,28
834,739	41,69
834,913	12,85
835,086	-1,97
835,26	-14,39
835,434	7,24
835,608	60,52
835,782	51,31
835,956	8,04
836,129	-5,17
836,303	106,59
836,477	31,68
836,651	60,12
836,824	54,51
836,998	19,66
837,172	55,31
837,345	90,16
837,519	16,06
837,693	64,53
837,866	23,67
838,04	38,49
838,213	20,86
838,387	31,28
838,56	8,45
838,734	52,51
838,907	122,61
839,081	97,78
839,254	70,54
839,428	69,33
839,601	358,55
839,775	1012,3
839,948	2584,58
840,122	4359,55
840,295	4957,62
840,468	5321,75
840,642	5216,8
840,815	4230,97
840,988	2703,55
841,162	1655,63
841,335	2040,19
841,508	3648,12
841,682	5973,89
841,855	7911,1
842,028	8319,69
842,201	8508,37
842,374	7663,14
842,548	5657,03
842,721	3334,87
842,894	2069,03
843,067	1701,3
843,24	1178,94
843,413	908,55
843,586	784,37
843,759	595,3
843,932	562,05
844,105	354,95
844,278	334,92
844,451	316,89
844,624	272,03
844,797	186,3
844,97	131,42
845,143	116,2
845,316	124,21
845,489	-7,18
845,662	10,45
845,835	114,6
846,008	28,47
846,18	62,12
846,353	138,63
846,526	112,6
846,699	60,12
846,872	80,95
847,044	66,53
847,217	-15,59
847,39	57,32
847,563	46,9
847,735	33,68
847,908	52,51
848,081	8,04
848,253	5,24
848,426	16,46
848,598	94,97
848,771	103,38
848,944	-58,45
849,116	-5,57
849,289	-11,58
849,461	-1,57
849,634	51,71
849,806	-6,38
849,979	13,25
850,151	91,77
850,324	117,4
850,496	51,71
850,668	14,45
850,841	61,72
851,013	311,69
851,186	683,42
851,358	1250,25
851,53	1858,33
851,703	2073,44
851,875	2071,84
852,047	1966,88
852,219	1571,11
852,392	978,65
852,564	648,57
852,736	433,46
852,908	311,28
853,081	322,5
853,253	241,58
853,425	196,32
853,597	184,7
853,769	94,57
853,941	141,84
854,113	99,78
854,285	94,97
854,457	79,35
854,63	41,69
854,802	125,42
854,974	14,05
855,146	66,93
855,318	93,77
855,489	17,26
855,661	34,08
855,833	18,86
856,005	64,13
856,177	-16,79
856,349	2,84
856,521	32,08
856,693	-23,6
856,865	-33,21
857,036	119,01
857,208	50,51
857,38	-0,77
857,552	-17,99
857,723	34,48
857,895	-7,58
858,067	17,26
858,239	32,48
858,41	-48,04
858,582	61,32
858,754	3,64
858,925	-62,46
859,097	60,92
859,268	50,11
859,44	14,05
859,612	3,24
859,783	-73,67
859,955	-32,01
860,126	-13,19
860,298	-5,57
860,469	40,89
860,641	-40,02
860,812	-16,39
860,983	-62,86
861,155	1,64
861,326	19,26
861,498	-12,79
861,669	23,67
861,84	27,27
862,012	66,93
862,183	58,12
862,354	82,95
862,526	18,06
862,697	46,5
862,868	22,87
863,039	1,24
863,211	-40,02
863,382	22,87
863,553	2,84
863,724	-45,23
863,895	-9,58
864,066	60,92
864,238	23,27
864,409	44,5
864,58	-45,23
864,751	89,36
864,922	3,24
865,093	48,9
865,264	77,35
865,435	-58,85
865,606	62,52
865,777	72,94
865,948	162,67
866,119	197,52
866,29	327,31
866,461	271,23
866,632	217,55
866,802	279,24
866,973	265,22
867,144	163,87
867,315	157,86
867,486	137,43
867,657	114,6
867,827	108,59
867,998	70,54
868,169	8,45
868,34	104,18
868,51	55,31
868,681	74,14
868,852	43,3
869,022	64,13
869,193	66,93
869,364	47,7
869,534	-31,21
869,705	42,9
869,875	15,26
870,046	11,25
870,217	31,28
870,387	-5,17
870,558	72,54
870,728	27,67
870,899	-18,39
871,069	-11,58
871,239	56,52
871,41	-7,58
871,58	39,69
871,751	-1,57
871,921	-8,78
872,091	-9,18
872,262	64,53
872,432	69,33
872,602	-42,83
872,773	22,87
872,943	14,45
873,113	48,9
873,284	-19,6
873,454	9,25
873,624	26,87
873,794	-4,37
873,964	33,28
874,135	-16,39
874,305	12,05
874,475	12,45
874,645	-54,45
874,815	55,31
874,985	16,46
875,155	-36,82
875,325	-0,77
875,495	-15,59
875,665	-8,38
875,835	-24,4
876,005	20,06
876,175	20,46
876,345	8,04
876,515	3,64
876,685	75,34
876,855	66,93
877,025	10,05
877,195	-113,73
877,365	12,85
877,534	32,48
877,704	-3,17
877,874	90,97
878,044	-15,99
878,214	25,27
878,383	24,87
878,553	60,12
878,723	2,44
878,892	35,69
879,062	23,27
879,232	-0,77
879,401	-15,99
879,571	20,86
879,741	-88,9
879,91	-22
880,08	16,46
880,249	-0,77
880,419	4,04
880,589	-1,17
880,758	44,1
880,928	51,71
881,097	-0,77
881,267	4,44
881,436	-5,98
881,605	30,48
881,775	-70,07
881,944	8,85
882,114	81,35
882,283	4,44
882,452	63,33
882,622	-9,18
882,791	-17,99
882,96	-5,57
883,13	57,72
883,299	56,11
883,468	-5,98
883,637	-41,23
883,807	44,9
883,976	-20
884,145	-11,98
884,314	30,88
884,483	-17,59
884,652	2,44
884,822	36,89
884,991	-30,01
885,16	24,07
885,329	62,12
885,498	10,05
885,667	14,45
885,836	26,87
886,005	-9,98
886,174	42,09
886,343	74,54
886,512	-5,98
886,681	41,29
886,85	85,76
887,019	49,71
887,187	14,85
887,356	36,49
887,525	-9,58
887,694	-6,38
887,863	6,84
888,032	-7,98
888,2	16,46
888,369	-18,79
888,538	59,32
888,707	-17,59
888,875	-69,67
889,044	-44,03
889,213	64,13
889,381	40,09
889,55	-2,37
889,719	51,71
889,887	44,9
890,056	-68,47
890,224	54,11
890,393	-35,22
890,562	48,9
890,73	16,46
890,899	42,09
891,067	10,05
891,236	14,05
891,404	74,54
891,573	-7,98
891,741	17,26
891,909	-0,77
892,078	84,56
892,246	38,89
892,415	-17,19
892,583	17,26
892,751	17,66
892,92	18,86
893,088	68,93
893,256	48,1
893,424	-5,17
893,593	45,7
893,761	-13,99
893,929	-32,01
894,097	-1,97
894,265	-13,19
894,434	16,06
894,602	69,73
894,77	36,49
894,938	72,14
895,106	17,26
895,274	71,74
895,442	4,04
895,61	82,55
895,778	-19,19
895,946	40,09
896,114	40,89
896,282	-5,17
896,45	-3,57
896,618	62,92
896,786	24,87
896,954	5,64
897,122	16,46
897,29	20,06
897,458	2,44
897,625	31,28
897,793	35,69
897,961	56,52
898,129	-11,18
898,297	74,94
898,464	30,88
898,632	18,86
898,8	66,53
898,968	4,44
899,135	14,45
899,303	-37,62
899,471	-32,41
899,638	58,52
899,806	19,26
899,973	8,85
900,141	86,56
900,309	29,68
900,476	33,68
900,644	89,76
900,811	1,64
900,979	42,09
901,146	34,88
901,314	29,28
901,481	15,26
901,649	61,72
901,816	37,29
901,983	41,69
902,151	6,44
