Data from Subt4__1__14-31-14-910.txt Node

Date: Thu Feb 19 14:31:14 CET 2026
User: Versuch 234
Spectrometer: USB4F05580
Trigger mode: 4
Integration Time (sec): 7,500000E-2
Scans to average: 5
Electric dark correction enabled: true
Nonlinearity correction enabled: false
Boxcar width: 0
XAxis mode: Wavelengths
Number of Pixels in Spectrum: 3648
>>>>>Begin Spectral Data<<<<<
197,409	32,01
197,623	32,01
197,837	32,01
198,051	60,85
198,265	22,4
198,479	-44,9
198,693	-16,06
198,907	-30,88
199,122	41,23
199,336	-54,11
199,55	22,8
199,763	39,22
199,977	4,37
200,191	43,23
200,405	16,39
200,619	24,8
200,833	-46,1
201,047	42,83
201,261	68,47
201,475	17,59
201,689	13,99
201,903	-16,86
202,117	-23,67
202,331	-30,88
202,545	1,97
202,758	40,43
202,972	-40,09
203,186	-52,91
203,4	48,44
203,614	11,58
203,828	-42,09
204,041	-0,83
204,255	23,6
204,469	28,41
204,683	44,43
204,897	-7,24
205,11	21,6
205,324	-13,65
205,538	3,57
205,752	16,39
205,965	81,69
206,179	26
206,393	-89,36
206,606	-30,88
206,82	-2,84
207,034	-1,64
207,248	1,57
207,461	-14,05
207,675	8,78
207,889	32,41
208,102	37,22
208,316	-8,85
208,529	-15,66
208,743	-15,26
208,957	34,82
209,17	-28,88
209,384	26,81
209,597	-38,49
209,811	38,02
210,025	42,03
210,238	13,59
210,452	10,38
210,665	37,62
210,879	27,21
211,092	-18,06
211,306	-0,43
211,519	-15,66
211,733	5,17
211,946	33,62
212,16	59,25
212,373	-26,47
212,587	-26,07
212,8	-11,65
213,014	-15,66
213,227	26,81
213,44	-12,45
213,654	61,66
213,867	69,67
214,081	51,24
214,294	0,77
214,507	37,62
214,721	24,4
214,934	24,8
215,148	-10,05
215,361	76,48
215,574	50,44
215,788	-89,36
216,001	81,28
216,214	-11,25
216,428	44,03
216,641	9,98
216,854	18,39
217,067	2,77
217,281	30,81
217,494	41,23
217,707	7,98
217,92	-37,69
218,134	39,62
218,347	40,83
218,56	33,62
218,773	-38,49
218,986	54,45
219,2	0,37
219,413	-19,26
219,626	-10,85
219,839	48,04
220,052	58,45
220,265	-52,91
220,479	23,6
220,692	32,81
220,905	-20,46
221,118	51,64
221,331	-22,47
221,544	13,59
221,757	36,42
221,97	22,4
222,183	-50,91
222,396	30,81
222,609	22,4
222,822	-46,1
223,035	17,99
223,249	7,98
223,462	15,99
223,675	-57,72
223,887	20,4
224,1	82,89
224,313	10,78
224,526	28,41
224,739	-24,47
224,952	36,42
225,165	-26,07
225,378	15,59
225,591	86,09
225,804	2,77
226,017	32,81
226,23	15,99
226,443	-0,43
226,656	-15,26
226,868	-56,92
227,081	69,27
227,294	-40,49
227,507	18,39
227,72	-23,67
227,933	52,04
228,145	38,02
228,358	-32,48
228,571	-4,04
228,784	-44,9
228,997	-60,12
229,209	26
229,422	9,58
229,635	38,02
229,848	-26,47
230,06	-35,69
230,273	-68,13
230,486	44,83
230,698	-76,94
230,911	-26,07
231,124	-9,25
231,336	-40,89
231,549	-2,84
231,762	51,64
231,974	-61,32
232,187	-86,96
232,4	24,8
232,612	-27,27
232,825	4,77
233,038	17,99
233,25	47,24
233,463	9,98
233,675	-36,49
233,888	24,8
234,1	56,85
234,313	22,4
234,526	-2,04
234,738	-29,68
234,951	-34,08
235,163	-57,32
235,376	51,64
235,588	-69,33
235,801	-23,67
236,013	-56,11
236,226	19,19
236,438	-2,84
236,65	66,46
236,863	-32,88
237,075	59,25
237,288	-2,04
237,5	-54,51
237,713	-37,29
237,925	-44,5
238,137	-44,5
238,35	11,18
238,562	-2,84
238,774	70,07
238,987	104,12
239,199	-10,45
239,411	4,37
239,624	13,19
239,836	53,24
240,048	-5,24
240,261	52,44
240,473	15,99
240,685	7,58
240,897	-52,51
241,11	-15,26
241,322	34,02
241,534	9,58
241,746	17,19
241,959	48,04
242,171	-0,43
242,383	16,79
242,595	-41,29
242,807	-8,45
243,02	25,2
243,232	13,59
243,444	22,8
243,656	27,61
243,868	9,18
244,08	-8,45
244,293	-64,13
244,505	46,03
244,717	14,39
244,929	-46,1
245,141	-2,84
245,353	20,4
245,565	-12,85
245,777	-12,85
245,989	-18,46
246,201	-48,1
246,413	33,62
246,625	-21,26
246,837	15,19
247,049	10,78
247,261	63,66
247,473	-29,28
247,685	18,39
247,897	24,4
248,109	-31,28
248,321	27,61
248,533	-83,35
248,745	-46,5
248,957	14,79
249,169	-40,89
249,381	18,79
249,593	2,37
249,804	52,04
250,016	10,78
250,228	-38,09
250,44	28,41
250,652	-20,06
250,864	15,59
251,075	-20,06
251,287	6,38
251,499	42,83
251,711	15,99
251,923	36,82
252,134	12,79
252,346	-34,08
252,558	85,29
252,77	-18,86
252,982	11,98
253,193	-0,03
253,405	-13,25
253,617	12,79
253,828	-49,3
254,04	46,83
254,252	98,91
254,463	48,44
254,675	-46,9
254,887	-56,11
255,098	21,6
255,31	-47,3
255,522	31,61
255,733	-38,89
255,945	63,66
256,157	0,37
256,368	-0,83
256,58	2,77
256,791	-14,85
257,003	32,41
257,214	39,62
257,426	37,62
257,637	-43,3
257,849	-7,24
258,061	66,86
258,272	22,4
258,484	27,61
258,695	25,6
258,907	33,62
259,118	10,78
259,329	-58,92
259,541	-18,46
259,752	35,22
259,964	84,09
260,175	-21,66
260,387	-100,58
260,598	9,18
260,809	-6,44
261,021	-20,06
261,232	1,17
261,444	-14,85
261,655	45,23
261,866	25,6
262,078	9,58
262,289	-10,05
262,5	-48,1
262,712	-43,7
262,923	-26,07
263,134	-32,88
263,345	38,02
263,557	-60,12
263,768	-56,52
263,979	-48,9
264,191	-27,27
264,402	-44,9
264,613	-2,84
264,824	-26,07
265,035	-38,89
265,247	19,6
265,458	-38,89
265,669	-23,67
265,88	21,2
266,091	-8,45
266,302	17,59
266,514	-8,45
266,725	-13,25
266,936	16,39
267,147	-28,88
267,358	-3,64
267,569	45,23
267,78	3,17
267,991	-40,49
268,202	48,44
268,414	12,38
268,625	65,26
268,836	-59,32
269,047	55,65
269,258	-49,71
269,469	-14,05
269,68	23,6
269,891	-16,86
270,102	55,25
270,313	-30,48
270,524	-18,06
270,735	6,78
270,945	17,59
271,156	61,66
271,367	54,45
271,578	24,4
271,789	-41,69
272	38,42
272,211	36,42
272,422	17,19
272,633	51,24
272,844	-39,69
273,054	-34,88
273,265	-0,83
273,476	-32,08
273,687	-40,49
273,898	-32,48
274,109	-32,88
274,319	-28,47
274,53	85,29
274,741	-1,24
274,952	-21,66
275,162	28,81
275,373	14,39
275,584	-25,27
275,795	-46,5
276,005	-64,53
276,216	-28,47
276,427	-5,64
276,637	-41,69
276,848	0,77
277,059	-90,97
277,269	-28,88
277,48	16,39
277,691	3,17
277,901	-35,69
278,112	-42,49
278,323	-18,46
278,533	19,19
278,744	0,37
278,954	-51,31
279,165	16,39
279,376	13,19
279,586	-48,9
279,797	7,18
280,007	-18,46
280,218	7,18
280,428	31,21
280,639	83,69
280,849	-42,09
281,06	-16,86
281,27	-53,31
281,481	-18,86
281,691	17,59
281,902	-33,68
282,112	-4,84
282,322	84,09
282,533	1,57
282,743	24,4
282,954	24,4
283,164	-41,29
283,374	39,22
283,585	72,87
283,795	-43,3
284,006	4,37
284,216	-47,3
284,426	-0,43
284,637	-44,9
284,847	-40,89
285,057	22,8
285,268	75,68
285,478	-17,66
285,688	38,82
285,898	-19,66
286,109	9,58
286,319	-38,49
286,529	38,42
286,739	-26,87
286,95	20,8
287,16	37,62
287,37	61,66
287,58	-28,07
287,79	13,99
288,001	18,39
288,211	41,23
288,421	13,99
288,631	-7,24
288,841	10,38
289,051	-20,86
289,261	-0,43
289,471	-14,45
289,682	-52,11
289,892	10,78
290,102	-12,05
290,312	-30,88
290,522	12,79
290,732	22,8
290,942	32,41
291,152	-4,44
291,362	22,4
291,572	-68,93
291,782	5,57
291,992	44,03
292,202	-16,86
292,412	-44,5
292,622	-2,84
292,832	30,01
293,042	-4,04
293,252	-8,45
293,462	64,06
293,672	7,58
293,881	23,6
294,091	-5,24
294,301	2,37
294,511	28,81
294,721	88,49
294,931	70,47
295,141	-8,85
295,35	-0,43
295,56	10,78
295,77	-23,67
295,98	-12,45
296,19	53,64
296,4	-0,43
296,609	-31,28
296,819	48,44
297,029	33,62
297,239	3,97
297,448	21,2
297,658	-25,27
297,868	19,6
298,077	-14,05
298,287	11,18
298,497	-3,64
298,706	-3,64
298,916	-46,9
299,126	-7,64
299,335	50,44
299,545	28,01
299,755	-24,47
299,964	-19,66
300,174	62,86
300,384	68,87
300,593	29,61
300,803	-12,45
301,012	27,61
301,222	4,37
301,431	-44,1
301,641	23,6
301,851	17,59
302,06	37,62
302,27	2,37
302,479	39,62
302,689	7,98
302,898	-17,66
303,107	29,21
303,317	2,77
303,526	94,5
303,736	76,48
303,945	20,4
304,155	-28,07
304,364	46,43
304,574	-13,65
304,783	-38,09
304,992	-8,04
305,202	-22,07
305,411	36,02
305,62	7,18
305,83	37,22
306,039	19,6
306,248	17,19
306,458	-39,29
306,667	-54,11
306,876	-5,24
307,086	23,6
307,295	-6,04
307,504	-0,03
307,713	-2,04
307,923	-69,33
308,132	1,17
308,341	-3,24
308,55	-2,84
308,76	-41,29
308,969	2,77
309,178	48,04
309,387	22,4
309,596	-55,71
309,805	19,6
310,015	42,83
310,224	-10,85
310,433	-22,87
310,642	-77,35
310,851	-6,84
311,06	17,19
311,269	20,8
311,478	3,97
311,687	-35,69
311,896	38,02
312,106	101,31
312,315	92,1
312,524	135,76
312,733	146,58
312,942	8,78
313,151	97,71
313,36	-3,24
313,569	58,45
313,778	9,98
313,987	-38,89
314,195	38,02
314,404	27,21
314,613	15,19
314,822	57,25
315,031	-2,44
315,24	-37,29
315,449	86,49
315,658	-37,69
315,867	-6,04
316,076	11,58
316,284	22
316,493	56,05
316,702	25,2
316,911	10,38
317,12	11,58
317,329	68,87
317,537	63,26
317,746	-128,62
317,955	46,43
318,164	22,8
318,372	0,77
318,581	50,04
318,79	-3,24
318,999	2,37
319,207	8,38
319,416	-54,91
319,625	35,62
319,833	2,77
320,042	11,98
320,251	22
320,459	-54,51
320,668	-19,26
320,877	46,43
321,085	-25,67
321,294	-67,33
321,502	26
321,711	-26,07
321,92	58,85
322,128	-26,07
322,337	-62,92
322,545	56,45
322,754	11,58
322,962	26
323,171	-54,51
323,379	-47,7
323,588	17,99
323,796	-34,88
324,005	12,38
324,213	18,39
324,422	38,82
324,63	-30,88
324,839	-25,67
325,047	-11,65
325,256	1,17
325,464	11,98
325,672	75,28
325,881	-21,26
326,089	6,78
326,297	31,61
326,506	-35,69
326,714	51,24
326,923	12,79
327,131	-2,44
327,339	49,24
327,548	8,38
327,756	-11,25
327,964	-16,06
328,172	24,4
328,381	44,83
328,589	30,81
328,797	-15,66
329,005	31,61
329,214	-63,73
329,422	65,26
329,63	-12,05
329,838	88,9
330,046	12,38
330,255	29,21
330,463	35,22
330,671	-7,64
330,879	113,73
331,087	55,25
331,295	35,22
331,503	45,23
331,712	20
331,92	44,43
332,128	29,21
332,336	74,07
332,544	11,98
332,752	20,4
332,96	38,42
333,168	50,44
333,376	-41,29
333,584	63,26
333,792	123,35
334	61,26
334,208	47,64
334,416	89,3
334,624	30,41
334,832	21,6
335,04	10,38
335,248	35,62
335,456	52,04
335,664	6,78
335,872	20,4
336,08	-14,85
336,287	13,59
336,495	90,1
336,703	71,27
336,911	47,64
337,119	40,02
337,327	53,64
337,535	30,81
337,742	5,98
337,95	51,24
338,158	62,46
338,366	7,58
338,573	38,42
338,781	36,02
338,989	85,69
339,197	79,28
339,404	23,6
339,612	34,82
339,82	-4,84
340,028	15,99
340,235	86,89
340,443	58,45
340,651	62,86
340,858	-44,1
341,066	22,4
341,274	49,24
341,481	78,48
341,689	78,88
341,896	2,37
342,104	91,3
342,312	62,46
342,519	76,08
342,727	38,02
342,934	37,22
343,142	52,44
343,349	8,78
343,557	155,39
343,765	-10,85
343,972	85,29
344,18	82,89
344,387	95,3
344,594	89,3
344,802	142,17
345,009	41,23
345,217	74,07
345,424	75,28
345,632	13,59
345,839	84,89
346,047	48,44
346,254	17,19
346,461	106,12
346,669	84,09
346,876	90,9
347,083	82,89
347,291	39,22
347,498	66,86
347,705	110,93
347,913	72,47
348,12	81,28
348,327	99,31
348,535	49,24
348,742	65,66
348,949	28,81
349,156	66,06
349,364	40,83
349,571	64,46
349,778	79,68
349,985	56,05
350,192	106,92
350,4	67,66
350,607	107,72
350,814	88,09
351,021	57,25
351,228	83,69
351,435	121,74
351,643	80,08
351,85	96,51
352,057	118,54
352,264	89,3
352,471	79,28
352,678	120,14
352,885	80,08
353,092	94,5
353,299	46,03
353,506	96,91
353,713	125,35
353,92	61,66
354,127	133,76
354,334	78,48
354,541	62,86
354,748	99,31
354,955	121,34
355,162	137,77
355,369	74,88
355,576	185,03
355,783	142,57
355,99	96,11
356,197	21,6
356,404	104,52
356,611	46,43
356,817	38,82
357,024	110,13
357,231	139,77
357,438	81,28
357,645	76,08
357,852	102,52
358,058	165,81
358,265	134,56
358,472	109,73
358,679	110,53
358,885	86,09
359,092	130,16
359,299	36,82
359,506	74,47
359,712	84,49
359,919	48,04
360,126	101,31
360,333	70,07
360,539	132,96
360,746	92,1
360,953	166,61
361,159	51,64
361,366	35,22
361,572	158,6
361,779	133,76
361,986	83,69
362,192	120,54
362,399	209,87
362,605	122,94
362,812	100,11
363,019	181,83
363,225	233,1
363,432	529,13
363,638	1056,7
363,845	2710,3
364,051	4220,48
364,258	5068,91
364,464	5628,13
364,671	5161,85
364,877	4025
365,084	2711,1
365,29	2032,11
365,496	1534,99
365,703	1126,8
365,909	988,6
366,116	772,69
366,322	480,26
366,528	284,78
366,735	283,58
366,941	140,57
367,147	169,41
367,354	216,28
367,56	144,18
367,766	171,42
367,973	189,44
368,179	98,91
368,385	59,25
368,592	160,6
368,798	158,6
369,004	70,07
369,21	103,72
369,417	141,77
369,623	60,85
369,829	145,38
370,035	77,68
370,241	119,74
370,448	72,07
370,654	79,28
370,86	76,88
371,066	105,72
371,272	122,14
371,478	91,3
371,684	93,7
371,891	106,52
372,097	70,47
372,303	100,11
372,509	97,71
372,715	55,65
372,921	81,28
373,127	94,1
373,333	124,95
373,539	53,24
373,745	109,73
373,951	126,55
374,157	54,45
374,363	124,55
374,569	72,47
374,775	68,87
374,981	56,05
375,187	49,64
375,393	105,32
375,599	90,9
375,804	119,74
376,01	78,08
376,216	96,11
376,422	83,69
376,628	135,76
376,834	105,72
377,04	113,73
377,246	70,87
377,451	67,26
377,657	74,47
377,863	122,54
378,069	37,22
378,274	131,36
378,48	160,6
378,686	170,61
378,892	141,77
379,097	127,75
379,303	130,16
379,509	71,67
379,715	190,24
379,92	139,37
380,126	198,65
380,332	55,25
380,537	110,93
380,743	225,49
380,949	102,11
381,154	88,09
381,36	90,9
381,565	85,69
381,771	100,91
381,977	90,1
382,182	106,52
382,388	88,9
382,593	64,86
382,799	109,33
383,004	94,5
383,21	36,42
383,415	42,83
383,621	57,65
383,826	62,86
384,032	110,93
384,237	62,06
384,443	70,87
384,648	43,23
384,854	137,77
385,059	20
385,265	83,69
385,47	34,02
385,675	106,12
385,881	117,74
386,086	40,02
386,291	42,03
386,497	129,75
386,702	0,77
386,907	57,25
387,113	4,37
387,318	112,53
387,523	32,41
387,729	39,22
387,934	87,29
388,139	58,85
388,344	58,45
388,55	119,74
388,755	33,62
388,96	95,3
389,165	120,14
389,371	109,33
389,576	17,99
389,781	153,39
389,986	26
390,191	89,3
390,396	23,6
390,601	63,66
390,807	37,62
391,012	84,49
391,217	64,06
391,422	74,07
391,627	80,08
391,832	-16,06
392,037	108,52
392,242	128,55
392,447	53,64
392,652	34,42
392,857	93,3
393,062	25,6
393,267	64,86
393,472	10,78
393,677	40,43
393,882	11,18
394,087	48,04
394,292	86,49
394,497	62,86
394,702	32,01
394,907	90,1
395,112	54,85
395,317	51,24
395,521	21,2
395,726	15,59
395,931	61,66
396,136	52,84
396,341	-30,48
396,546	32,41
396,75	61,26
396,955	36,02
397,16	0,77
397,365	82,49
397,57	56,45
397,774	71,27
397,979	30,81
398,184	-0,83
398,389	83,69
398,593	71,27
398,798	43,63
399,003	39,22
399,207	48,04
399,412	34,42
399,617	1,57
399,821	36,02
400,026	143,78
400,231	124,55
400,435	31,61
400,64	54,85
400,844	23,6
401,049	47,64
401,254	50,44
401,458	55,65
401,663	51,64
401,867	68,47
402,072	65,26
402,276	103,32
402,481	114,93
402,685	146,98
402,89	219,89
403,094	494,68
403,299	1396,79
403,503	3207,42
403,708	5145,02
403,912	5825,61
404,116	6213,77
404,321	5753,91
404,525	3853,95
404,73	1928,76
404,934	997,01
405,138	551,17
405,343	457,43
405,547	263,15
405,751	200,26
405,956	122,54
406,16	138,97
406,364	200,26
406,569	310,02
406,773	449,82
406,977	573,2
407,181	622,07
407,386	673,34
407,59	430,19
407,794	276,77
407,998	110,13
408,202	79,68
408,407	83,29
408,611	79,68
408,815	38,02
409,019	7,58
409,223	97,71
409,427	64,46
409,632	114,13
409,836	92,5
410,04	40,43
410,244	46,83
410,448	11,98
410,652	122,54
410,856	26
411,06	52,44
411,264	91,3
411,468	44,83
411,672	19,6
411,876	104,12
412,08	68,87
412,284	76,88
412,488	27,21
412,692	104,12
412,896	76,88
413,1	73,27
413,304	40,43
413,508	120,14
413,712	41,23
413,916	56,05
414,12	90,1
414,323	30,81
414,527	76,08
414,731	75,68
414,935	177,82
415,139	192,65
415,343	124,95
415,546	169,41
415,75	76,88
415,954	139,77
416,158	36,02
416,361	5,17
416,565	18,39
416,769	71,27
416,973	55,25
417,176	108,12
417,38	-26,87
417,584	28,01
417,788	100,51
417,991	73,27
418,195	29,61
418,398	118,54
418,602	69,27
418,806	79,28
419,009	54,05
419,213	184,23
419,417	155,39
419,62	113,73
419,824	126,95
420,027	67,26
420,231	9,98
420,434	41,23
420,638	54,85
420,841	90,1
421,045	65,26
421,248	43,23
421,452	67,66
421,655	44,03
421,859	70,47
422,062	33,62
422,266	69,67
422,469	20
422,673	60,05
422,876	24,4
423,079	21,2
423,283	34,42
423,486	26,81
423,689	-32,88
423,893	95,3
424,096	179,43
424,299	123,75
424,503	-5,24
424,706	54,85
424,909	65,66
425,113	52,44
425,316	80,08
425,519	148,98
425,722	136,16
425,926	64,86
426,129	66,86
426,332	106,92
426,535	125,75
426,739	15,19
426,942	62,06
427,145	55,25
427,348	57,25
427,551	34,82
427,754	92,1
427,957	22,4
428,161	57,65
428,364	51,24
428,567	37,62
428,77	56,45
428,973	76,48
429,176	91,3
429,379	112,53
429,582	-42,49
429,785	94,5
429,988	87,69
430,191	102,92
430,394	54,45
430,597	14,79
430,8	76,88
431,003	135,36
431,206	-16,46
431,409	79,28
431,612	18,39
431,815	135,36
432,018	144,58
432,221	109,73
432,423	181,83
432,626	130,96
432,829	244,32
433,032	322,83
433,235	285,98
433,438	283,98
433,64	279,17
433,843	497,89
434,046	636,09
434,249	1360,74
434,452	3783,45
434,654	8524,32
434,857	13884,89
435,06	17578,65
435,263	19473,8
435,465	18203,55
435,668	13300,85
435,871	7794,06
436,073	3714,55
436,276	1980,44
436,479	1100,76
436,681	769,48
436,884	523,12
437,087	350,47
437,289	269,56
437,492	247,93
437,694	236,31
437,897	141,77
438,1	171,01
438,302	134,56
438,505	135,36
438,707	105,72
438,91	83,69
439,112	160,6
439,315	120,54
439,517	131,76
439,72	78,88
439,922	68,47
440,125	70,07
440,327	72,07
440,529	75,28
440,732	56,85
440,934	69,67
441,137	51,64
441,339	71,67
441,541	36,82
441,744	108,12
441,946	76,08
442,148	74,88
442,351	54,05
442,553	50,04
442,755	6,78
442,958	16,39
443,16	26,81
443,362	45,23
443,565	40,83
443,767	52,44
443,969	17,19
444,171	111,33
444,373	70,87
444,576	-1,64
444,778	69,67
444,98	20,8
445,182	80,48
445,384	-31,68
445,586	128,95
445,789	116,94
445,991	39,22
446,193	105,72
446,395	59,65
446,597	27,21
446,799	54,05
447,001	84,09
447,203	46,83
447,405	-21,26
447,607	74,88
447,809	82,89
448,011	-26,07
448,213	79,28
448,415	-16,06
448,617	79,28
448,819	21,6
449,021	-9,65
449,223	130,96
449,425	134,96
449,627	40,83
449,829	-22,47
450,031	47,64
450,233	76,48
450,435	102,52
450,636	70,87
450,838	81,69
451,04	41,23
451,242	41,63
451,444	17,99
451,646	33,62
451,847	37,62
452,049	89,7
452,251	88,09
452,453	74,07
452,654	44,83
452,856	64,46
453,058	66,86
453,26	29,21
453,461	18,39
453,663	5,17
453,865	31,61
454,066	22,8
454,268	22,8
454,47	111,73
454,671	46,03
454,873	24
455,074	-0,03
455,276	25,6
455,478	48,44
455,679	90,5
455,881	77,68
456,082	34,42
456,284	64,46
456,485	80,88
456,687	71,27
456,888	18,79
457,09	30,81
457,291	82,09
457,493	-21,66
457,694	13,59
457,896	-2,84
458,097	38,42
458,299	4,37
458,5	42,43
458,701	11,18
458,903	112,53
459,104	52,84
459,306	83,69
459,507	74,88
459,708	38,82
459,91	56,05
460,111	80,88
460,312	18,79
460,514	53,64
460,715	71,27
460,916	76,08
461,117	77,28
461,319	-7,64
461,52	-7,64
461,721	39,22
461,922	25,6
462,124	74,47
462,325	42,83
462,526	30,01
462,727	46,03
462,928	85,29
463,129	54,45
463,331	65,66
463,532	50,04
463,733	112,93
463,934	57,25
464,135	46,03
464,336	60,45
464,537	112,53
464,738	22
464,939	62,46
465,14	61,66
465,341	120,14
465,542	21,6
465,743	79,28
465,944	128,55
466,145	77,28
466,346	82,09
466,547	173,82
466,748	84,49
466,949	96,91
467,15	97,31
467,351	46,43
467,552	110,93
467,753	105,72
467,953	78,08
468,154	47,24
468,355	83,69
468,556	-4,44
468,757	70,47
468,958	14,39
469,158	30,81
469,359	102,52
469,56	53,64
469,761	50,84
469,962	115,73
470,162	65,66
470,363	28,81
470,564	112,93
470,764	55,65
470,965	112,53
471,166	70,87
471,366	47,24
471,567	3,57
471,768	63,66
471,968	24
472,169	72,87
472,37	104,12
472,57	87,69
472,771	108,52
472,971	60,45
473,172	103,32
473,373	126,55
473,573	78,48
473,774	124,55
473,974	168,21
474,175	123,35
474,375	63,66
474,576	165,41
474,776	93,7
474,977	105,72
475,177	147,38
475,377	111,33
475,578	61,66
475,778	102,92
475,979	129,75
476,179	106,12
476,379	163
476,58	104,12
476,78	113,73
476,981	162,2
477,181	90,5
477,381	166,21
477,582	179,43
477,782	177,02
477,982	181,43
478,182	215,88
478,383	243,12
478,583	321,23
478,783	187,04
478,983	279,97
479,184	293,19
479,384	323,24
479,584	321,23
479,784	408,56
479,984	503,5
480,184	338,46
480,385	471,05
480,585	637,69
480,785	574,4
480,985	687,76
481,185	744,25
481,385	848,4
481,585	934,12
481,785	1121,19
481,985	1129,6
482,185	1377,56
482,385	1444,86
482,585	1594,28
482,785	1819
482,985	1983,24
483,185	2204,76
483,385	2430,69
483,585	2585,71
483,785	2748,35
483,985	2851,3
484,185	3190,59
484,385	3296,35
484,585	3646,85
484,785	3924,86
484,985	4316,22
485,185	4534,54
485,384	4909,08
485,584	5121,39
485,784	5239,56
485,984	5247,17
486,184	5435,05
486,383	5431,04
486,583	5429,44
486,783	5349,72
486,983	5310,06
487,183	5177,47
487,382	5167,86
487,582	4902,27
487,782	4897,87
487,981	4661,52
488,181	4452,82
488,381	4300,6
488,58	4265,35
488,78	4065,46
488,98	3966,52
489,179	3771,83
489,379	3734,98
489,579	3625,62
489,778	3626,82
489,978	3529,88
490,177	3340,01
490,377	3417,32
490,576	3454,57
490,776	3465,39
490,975	3489,02
491,175	3430,94
491,374	3294,34
491,574	3211,02
491,773	3063,21
491,973	2975,88
492,172	2966,67
492,372	2871,33
492,571	2802,83
492,771	2721,51
492,97	2692,67
493,169	2572,9
493,369	2550,46
493,568	2413,87
493,767	2447,11
493,967	2363,39
494,166	2318,93
494,365	2279,27
494,565	2082,99
494,764	2088,59
494,963	2062,96
495,163	2050,14
495,362	2019,69
495,561	1887,5
495,76	1991,25
495,959	1713,25
496,159	1780,95
496,358	1724,07
496,557	1705,64
496,756	1554,62
496,955	1568,24
497,155	1581,06
497,354	1481,71
497,553	1424,43
497,752	1385,98
497,951	1339,91
498,15	1329,09
498,349	1182,48
498,548	1204,91
498,747	1140,82
498,946	1115,58
499,145	1028,66
499,344	1023,05
499,543	985,4
499,742	964,56
499,941	894,06
500,14	815,15
500,339	737,84
500,538	789,51
500,737	749,05
500,936	721,41
501,135	684,56
501,334	651,71
501,533	704,99
501,732	644,1
501,931	516,32
502,129	512,31
502,328	507,1
502,527	484,67
502,726	454,23
502,925	457,03
503,123	453,82
503,322	435,4
503,521	430,19
503,72	400,95
503,919	353,28
504,117	406,16
504,316	318,03
504,515	354,48
504,713	302,81
504,912	285,98
505,111	308,01
505,309	252,33
505,508	273,96
505,707	275,57
505,905	175,82
506,104	261,55
506,302	241,52
506,501	202,26
506,7	197,85
506,898	181,83
507,097	131,76
507,295	177,82
507,494	163
507,692	209,07
507,891	241,52
508,089	211,47
508,288	157,8
508,486	227,5
508,685	193,05
508,883	224,69
509,082	183,03
509,28	283,18
509,478	189,04
509,677	206,27
509,875	241,52
510,073	195,05
510,272	187,04
510,47	210,27
510,669	144,98
510,867	171,01
511,065	205,06
511,263	149,78
511,462	164,61
511,66	184,23
511,858	135,36
512,056	194,65
512,255	169,01
512,453	140,17
512,651	136,97
512,849	238,71
513,048	181,43
513,246	208,67
513,444	182,63
513,642	146,58
513,84	111,73
514,038	110,93
514,236	97,31
514,435	143,37
514,633	76,48
514,831	126,95
515,029	123,75
515,227	133,36
515,425	141,37
515,623	46,83
515,821	126,55
516,019	164,2
516,217	108,52
516,415	129,35
516,613	119,74
516,811	102,11
517,009	158,2
517,207	160,6
517,405	131,36
517,602	120,54
517,8	123,35
517,998	102,11
518,196	107,32
518,394	177,42
518,592	106,52
518,79	58,85
518,987	144,98
519,185	150,58
519,383	90,1
519,581	99,71
519,779	165,01
519,976	133,36
520,174	90,9
520,372	87,69
520,57	173,02
520,767	144,58
520,965	155,39
521,163	118,54
521,36	120,94
521,558	159
521,756	114,13
521,953	142,97
522,151	176,62
522,349	149,78
522,546	128,15
522,744	131,36
522,941	124,55
523,139	88,49
523,336	172,62
523,534	171,82
523,731	44,43
523,929	94,5
524,126	177,42
524,324	34,02
524,521	103,32
524,719	100,51
524,916	133,36
525,114	142,97
525,311	186,64
525,509	82,89
525,706	144,18
525,903	121,34
526,101	207,87
526,298	191,84
526,496	165,01
526,693	185,84
526,89	282,38
527,088	224,29
527,285	162,2
527,482	219,08
527,679	150,18
527,877	140,17
528,074	187,04
528,271	191,44
528,468	201,86
528,666	208,67
528,863	284,38
529,06	205,46
529,257	245,92
529,454	227,1
529,652	197,45
529,849	233,1
530,046	223,09
530,243	208,67
530,44	279,57
530,637	424,18
530,834	265,15
531,031	240,32
531,228	312,82
531,425	402,15
531,622	481,06
531,819	511,51
532,016	669,74
532,213	815,95
532,41	957,76
532,607	1070,72
532,804	1121,19
533,001	1137,22
533,198	1123,19
533,395	1093,55
533,592	1020,25
533,789	940,93
533,986	890,46
534,183	848,8
534,38	868,43
534,576	935,32
534,773	913,69
534,97	1062,71
535,167	1075,13
535,364	1231,75
535,561	1272,21
535,757	1405,2
535,954	1633,53
536,151	1927,96
536,348	2128,25
536,544	2367,4
536,741	2707,09
536,938	3084,44
537,134	3365,24
537,331	3707,34
537,528	3902,82
537,724	4080,68
537,921	4199,65
538,118	4587,82
538,314	4685,56
538,511	5193,5
538,707	5739,89
538,904	6581,51
539,101	7453,97
539,297	8728,62
539,494	9750,5
539,69	11206,61
539,887	12952,74
540,083	15547,3
540,28	18199,15
540,476	21129
540,673	23810,88
540,869	26753,55
541,066	27992,95
541,262	28599,02
541,458	28047,82
541,655	26955,84
541,851	25749,29
542,048	24314,01
542,244	22710,09
542,44	21655,36
542,637	20807,73
542,833	20778,89
543,029	20366,69
543,226	20344,66
543,422	20125,14
543,618	20273,36
543,814	19961,7
544,011	20270,95
544,207	19977,33
544,403	20586,21
544,599	22896,36
544,796	29097,75
544,992	35026,34
545,188	38759,35
545,384	41039,86
545,58	42078,96
545,776	38161,69
545,972	32511,9
546,169	29120,18
546,365	26423,07
546,561	23418,31
546,757	20855,8
546,953	18676,24
547,149	17338,3
547,345	15923,45
547,541	15275,31
547,737	14089,19
547,933	13548,41
548,129	12560,17
548,325	12192,44
548,521	11271,11
548,717	10850,1
548,913	10068,56
549,109	9797,37
549,305	9130
549,501	8729,42
549,697	8078,88
549,892	7769,23
550,088	7195,6
550,284	6783
550,48	6339,56
550,676	6168,51
550,872	5624,52
551,067	5390,18
551,263	5065,71
551,459	4800,93
551,655	4510,91
551,85	4172,01
552,046	4119,54
552,242	3769,43
552,438	3573,95
552,633	3434,14
552,829	3215,83
553,025	3203,01
553,22	2802,83
553,416	2552,07
553,612	2394,24
553,807	2401,85
554,003	2213,17
554,198	2038,92
554,394	1781,35
554,59	1804,98
554,785	1589,47
554,981	1593,88
555,176	1474,1
555,372	1415,62
555,567	1339,51
555,763	1325,89
555,958	1131,61
556,154	1095,96
556,349	1081,94
556,545	991,8
556,74	982,99
556,936	921,7
557,131	961,76
557,326	912,89
557,522	841,59
557,717	856,81
557,912	806,34
558,108	766,28
558,303	737,84
558,498	801,93
558,694	781,5
558,889	733,03
559,084	571,19
559,28	687,36
559,475	622,07
559,67	678,55
559,865	661,73
560,061	628,08
560,256	553,17
560,451	561,58
560,646	521,12
560,841	579,61
561,037	452,62
561,232	519,92
561,427	608,45
561,622	511,91
561,817	553,17
562,012	499,09
562,207	494,68
562,402	437,8
562,597	503,9
562,792	463,44
562,987	532,74
563,182	464,64
563,377	428,99
563,572	447,01
563,767	476,66
563,962	415,77
564,157	375,71
564,352	434,6
564,547	436,6
564,742	437,8
564,937	370,5
565,132	358,89
565,327	371,3
565,522	367,7
565,716	407,36
565,911	385,73
566,106	392,14
566,301	376,91
566,496	399,75
566,691	398,14
566,885	409,36
567,08	356,08
567,275	412,97
567,47	326,84
567,664	340,06
567,859	378,52
568,054	386,13
568,248	307,61
568,443	413,37
568,638	423,78
568,832	312,82
569,027	327,64
569,222	309,21
569,416	317,23
569,611	252,73
569,805	313,22
570	266,35
570,195	248,33
570,389	265,95
570,584	258,34
570,778	248,33
570,973	289,99
571,167	255,54
571,362	308,81
571,556	253,13
571,751	236,31
571,945	200,26
572,139	275,97
572,334	245,52
572,528	231,1
572,723	257,94
572,917	232,7
573,111	251,93
573,306	253,93
573,5	258,34
573,694	304,81
573,889	324,04
574,083	318,83
574,277	345,67
574,472	409,76
574,666	411,76
574,86	442,61
575,054	516,32
575,249	529,53
575,443	876,04
575,637	1726,87
575,831	2730,32
576,025	3401,7
576,219	3668,48
576,414	4101,51
576,608	3765,02
576,802	3027,15
576,996	2699,88
577,19	2378,61
577,384	2163,1
577,578	2046,93
577,772	2628,98
577,966	3444,96
578,16	3686,91
578,354	4043,03
578,548	4098,71
578,742	3862,77
578,936	3473,4
579,13	3733,78
579,324	4073,47
579,518	4217,68
579,712	4242,92
579,906	4204,86
580,1	3916,44
580,294	3569,14
580,488	3359,24
580,682	3413,72
580,875	3513,86
581,069	3542,7
581,263	3595,98
581,457	3906,83
581,651	4100,71
581,845	4303,4
582,038	4382,72
582,232	4664,73
582,426	4595,03
582,62	4806,93
582,813	4771,68
583,007	4857,01
583,201	4774,89
583,394	4772,48
583,588	4683,96
583,782	4684,36
583,975	4622,27
584,169	4632,28
584,363	4454,02
584,556	4353,88
584,75	4204,86
584,943	4169,61
585,137	4023,8
585,33	3995,76
585,524	4117,54
585,718	4560,18
585,911	5104,17
586,105	6173,32
586,298	7115,48
586,491	8186,63
586,685	8473,05
586,878	8588,82
587,072	7913,84
587,265	7290,54
587,459	6530,63
587,652	5920,15
587,845	5145,83
588,039	4673,14
588,232	4127,55
588,426	3697,33
588,619	3203,01
588,812	3026,35
589,005	2896,97
589,199	2828,07
589,392	2669,04
589,585	2755,96
589,779	2733,13
589,972	2854,1
590,165	2960,26
590,358	3017,14
590,551	3202,61
590,745	3310,37
590,938	3504,65
591,131	3719,76
591,324	3826,71
591,517	4442,41
591,71	5005,22
591,904	5689,01
592,097	6338,76
592,29	6834,27
592,483	6972,47
592,676	7045,38
592,869	6751,35
593,062	6388,43
593,255	5670,19
593,448	5196,3
593,641	4730,42
593,834	4228,1
594,027	3650,46
594,22	3444,96
594,413	3056
594,606	2828,47
594,799	2683,46
594,992	2526,83
595,184	2375,81
595,377	2373,01
595,57	2232
595,763	2248,83
595,956	2160,3
596,149	2223,99
596,341	2169,11
596,534	2122,64
596,727	2205,16
596,92	2176,32
597,113	2199,15
597,305	2483,17
597,498	2658,22
597,691	2814,85
597,883	3094,45
598,076	3382,47
598,269	3736,98
598,462	4105,12
598,654	4371,5
598,847	4480,86
599,039	4587,82
599,232	4569,39
599,425	4345,07
599,617	4107,92
599,81	3879,19
600,002	3607,6
600,195	3203,41
600,387	3081,23
600,58	2782,8
600,772	2620,57
600,965	2302,9
601,157	2149,48
601,35	1924,36
601,542	1806,18
601,735	1674,39
601,927	1683,21
602,12	1515,76
602,312	1539,8
602,504	1445,26
602,697	1524,18
602,889	1502,54
603,082	1553,42
603,274	1598,28
603,466	1693,22
603,659	1624,72
603,851	1742,89
604,043	1612,7
604,235	1783,35
604,428	1777,34
604,62	1775,74
604,812	1899,92
605,004	1875,49
605,197	1858,26
605,389	2042,53
605,581	1999,67
605,773	2141,07
605,965	2259,64
606,157	2295,29
606,349	2394,64
606,542	2619,76
606,734	2680,25
606,926	2991,5
607,118	3054,79
607,31	3332
607,502	3535,49
607,694	4043,43
607,886	4232,5
608,078	4847,79
608,27	5362,14
608,462	6142,47
608,654	6896,76
608,846	8298,4
609,038	9684
609,23	11951,69
609,422	14958,85
609,614	19797,87
609,805	26841,28
609,997	36717,99
610,189	46935,6
610,381	56126,53
610,573	59881,97
610,765	61813,97
610,957	60967,95
611,148	58702,66
611,34	53284,81
611,532	49321,06
611,724	44181,21
611,915	40369,69
612,107	35728,56
612,299	32618,05
612,491	28986,39
612,682	26602,93
612,874	24040,02
613,066	22768,17
613,257	21209,51
613,449	20907,87
613,64	19792,26
613,832	18884,54
614,024	18130,25
614,215	17071,91
614,407	16035,61
614,598	14979,68
614,79	13713,85
614,981	12607,44
615,173	11297,14
615,364	10286,08
615,556	9238,96
615,747	8564,38
615,939	7513,66
616,13	7013,33
616,322	6398,04
616,513	5931,36
616,705	5352,93
616,896	5221,14
617,087	4859,01
617,279	4505,7
617,47	4205,66
617,661	4139,17
617,853	3815,1
618,044	3704,14
618,235	3629,23
618,427	3601,19
618,618	3450,17
618,809	3542,7
619	3491,03
619,192	3493,43
619,383	3446,96
619,574	3647,25
619,765	3527,88
619,957	3749,4
620,148	3714,15
620,339	3782,25
620,53	3781,45
620,721	3807,49
620,912	3720,96
621,103	3844,34
621,294	3809,09
621,485	3836,73
621,677	3903,63
621,868	3990,95
622,059	3958,91
622,25	4192,44
622,441	4108,72
622,632	4317,02
622,823	4345,07
623,014	4448,42
623,205	4532,54
623,395	4464,44
623,586	4542,95
623,777	4657,52
623,968	4518,52
624,159	4656,72
624,35	4615,46
624,541	4709,99
624,732	4738,03
624,923	4713,2
625,113	4688,76
625,304	4665,93
625,495	4621,47
625,686	4670,34
625,877	4723,21
626,067	4700,38
626,258	4627,88
626,449	4544,96
626,639	4454,42
626,83	4415,17
627,021	4294,99
627,211	4221,29
627,402	4275,36
627,593	4107,12
627,783	4092,7
627,974	4083,49
628,165	4037,02
628,355	4129,15
628,546	4017,39
628,736	4256,14
628,927	4323,43
629,117	4639,89
629,308	4937,52
629,498	5517,97
629,689	6193,75
629,879	7065,41
630,07	7742,39
630,26	8199,45
630,451	8321,63
630,641	8256,34
630,832	7719,16
631,022	6993,7
631,212	6205,36
631,403	5435,45
631,593	4715,6
631,784	4103,11
631,974	3595,58
632,164	3105,67
632,355	2609,35
632,545	2291,29
632,735	1995,66
632,925	1653,56
633,116	1580,26
633,306	1390,38
633,496	1269,01
633,686	1214,93
633,876	1135,21
634,067	1084,74
634,257	1023,85
634,447	960,56
634,637	958,96
634,827	876,84
635,017	799,93
635,208	886,45
635,398	850,8
635,588	899,27
635,778	782,7
635,968	858,01
636,158	765,08
636,348	782,7
636,538	710,2
636,728	763,47
636,918	698,98
637,108	717,81
637,298	646,1
637,488	660,92
637,678	649,71
637,868	633,69
638,057	685,76
638,247	624,47
638,437	622,47
638,627	669,34
638,817	526,73
639,007	538,75
639,197	565,99
639,386	533,94
639,576	588,42
639,766	515,51
639,956	606,45
640,145	531,54
640,335	566,39
640,525	588,02
640,715	636,49
640,904	584,01
641,094	552,37
641,284	539,55
641,473	524,33
641,663	603,64
641,853	524,73
642,042	584,41
642,232	563,58
642,421	565,19
642,611	644,9
642,801	588,42
642,99	625,67
643,18	655,32
643,369	635,69
643,559	590,82
643,748	676,15
643,938	640,9
644,127	583,21
644,317	477,06
644,506	565,19
644,695	626,88
644,885	583,21
645,074	497,09
645,264	562,38
645,453	591,22
645,642	567,99
645,832	548,76
646,021	561,98
646,21	561,18
646,4	473,85
646,589	595,63
646,778	564,38
646,967	476,26
647,157	463,04
647,346	596,83
647,535	523,53
647,724	588,42
647,913	533,54
648,103	564,38
648,292	665,33
648,481	732,23
648,67	812,34
648,859	900,47
649,048	1177,27
649,237	1337,1
649,427	1696,03
649,616	1916,75
649,805	2046,93
649,994	2106,22
650,183	1999,67
650,372	2019,29
650,561	1790,56
650,75	1719,66
650,939	1522,97
651,128	1397,19
651,317	1277,42
651,506	1198,9
651,694	1153,24
651,883	1203,71
652,072	1105,97
652,261	1119,59
652,45	1128,8
652,639	1137,62
652,828	1039,87
653,016	1015,84
653,205	893,26
653,394	864,82
653,583	835,18
653,772	833,58
653,96	740,24
654,149	683,76
654,338	669,74
654,527	701,38
654,715	656,52
654,904	665,73
655,093	605,64
655,281	561,98
655,47	627,28
655,658	557,57
655,847	529,93
656,036	600,84
656,224	581,61
656,413	613,26
656,601	549,16
656,79	670,14
656,978	655,72
657,167	692,17
657,355	658,12
657,544	626,88
657,732	670,94
657,921	568,79
658,109	566,39
658,298	539,55
658,486	566,79
658,675	475,86
658,863	553,17
659,051	454,23
659,24	395,74
659,428	330,05
659,616	375,31
659,805	360,49
659,993	308,81
660,181	352,48
660,37	402,55
660,558	402,55
660,746	500,29
660,934	569,59
661,123	657,32
661,311	828,77
661,499	1071,52
661,687	1150,83
661,875	1243,77
662,064	1264,6
662,252	1148,03
662,44	1043,48
662,628	1021,85
662,816	970,57
663,004	911,29
663,192	792,32
663,38	803,53
663,568	741,84
663,756	635,69
663,944	567,99
664,132	553,57
664,32	526,73
664,508	490,68
664,696	442,21
664,884	492,28
665,072	433,39
665,26	359,69
665,448	460,23
665,636	361,69
665,824	426,59
666,012	408,16
666,199	367,7
666,387	382,92
666,575	392,14
666,763	393,74
666,951	389,73
667,139	436,2
667,326	438,6
667,514	389,73
667,702	336,05
667,889	420,98
668,077	352,08
668,265	348,87
668,453	367,7
668,64	328,84
668,828	319,23
669,016	363,69
669,203	365,3
669,391	371,3
669,578	351,68
669,766	314,42
669,954	283,98
670,141	338,86
670,329	211,47
670,516	330,85
670,704	375,31
670,891	299,2
671,079	311,22
671,266	398,54
671,454	317,23
671,641	300,8
671,828	308,41
672,016	212,67
672,203	293,19
672,391	291,19
672,578	273,56
672,765	186,24
672,953	280,37
673,14	319,23
673,327	265,55
673,515	251,93
673,702	276,77
673,889	240,32
674,077	183,83
674,264	295,6
674,451	256,74
674,638	294,39
674,825	218,68
675,013	220,29
675,2	288,79
675,387	246,32
675,574	149,38
675,761	263,95
675,948	274,36
676,136	290,79
676,323	213,08
676,51	229,5
676,697	323,64
676,884	253,93
677,071	253,93
677,258	312,02
677,445	257,14
677,632	261,95
677,819	220,29
678,006	236,31
678,193	215,88
678,38	215,88
678,567	273,56
678,754	321,23
678,94	299,2
679,127	325,24
679,314	309,62
679,501	289,99
679,688	346,87
679,875	331,25
680,062	348,47
680,248	329,24
680,435	315,22
680,622	382,92
680,809	308,01
680,995	329,64
681,182	320,03
681,369	263,95
681,556	311,22
681,742	332,85
681,929	340,46
682,116	350,88
682,302	239,91
682,489	289,99
682,675	228,7
682,862	328,84
683,049	270,76
683,235	274,76
683,422	226,29
683,608	299,6
683,795	222,69
683,981	176,22
684,168	283,18
684,354	324,84
684,541	322,43
684,727	315,22
684,914	366,5
685,1	305,61
685,287	322,03
685,473	413,37
685,659	466,24
685,846	511,91
686,032	514,31
686,218	716,61
686,405	780,3
686,591	862,42
686,777	1005,42
686,964	1013,44
687,15	1101,16
687,336	992,61
687,522	993,01
687,709	864,02
687,895	901,27
688,081	861,22
688,267	741,44
688,454	658,12
688,64	603,24
688,826	571,19
689,012	435,4
689,198	394,14
689,384	368,9
689,57	322,03
689,756	296,8
689,942	287,98
690,128	335,65
690,314	233,51
690,501	211,07
690,687	241,92
690,873	227,1
691,058	158,2
691,244	131,36
691,43	74,47
691,616	193,45
691,802	129,35
691,988	245,12
692,174	276,37
692,36	429,39
692,546	454,23
692,732	728,62
692,917	746,65
693,103	779,9
693,289	777,89
693,475	686,16
693,661	616,86
693,846	541,15
694,032	416,57
694,218	440,61
694,404	430,59
694,589	311,62
694,775	348,87
694,961	299,6
695,146	360,49
695,332	800,33
695,518	1231,75
695,703	1466,49
695,889	1649,56
696,074	1682,81
696,26	1537,8
696,446	1146,03
696,631	1013,44
696,817	910,89
697,002	793,92
697,188	703,79
697,373	557,98
697,559	491,48
697,744	333,25
697,93	406,16
698,115	199,46
698,3	156,59
698,486	175,42
698,671	240,32
698,857	161,8
699,042	28,81
699,227	213,88
699,413	108,52
699,598	150,18
699,783	133,36
699,969	194,25
700,154	77,28
700,339	88,09
700,524	94,1
700,71	93,7
700,895	97,71
701,08	197,45
701,265	106,52
701,45	189,04
701,636	119,34
701,821	151,79
702,006	150,18
702,191	177,42
702,376	177,02
702,561	227,5
702,746	274,36
702,931	361,29
703,116	332,85
703,301	309,62
703,486	337,26
703,671	324,44
703,856	327,64
704,041	434,2
704,226	459,83
704,411	435
704,596	506,7
704,781	590,42
704,966	758,67
705,151	851,2
705,336	1065,11
705,521	1577,85
705,706	2129,45
705,89	2520,82
706,075	2827,27
706,26	3107,27
706,445	3131,31
706,63	2849,3
706,814	2637,79
706,999	2459,53
707,184	2386,23
707,368	2252,43
707,553	2096,21
707,738	2069,37
707,923	2328,54
708,107	2421,08
708,292	2612,95
708,476	2701,08
708,661	2584,51
708,846	2384,22
709,03	2166,71
709,215	1851,45
709,399	1619,11
709,584	1386,78
709,768	1349,92
709,953	1169,26
710,137	1031,46
710,322	916,5
710,506	885,25
710,691	950,14
710,875	1107,57
711,06	1299,85
711,244	1537,4
711,429	1691,22
711,613	1877,49
711,797	1951,6
711,982	1891,51
712,166	1893,11
712,35	1677,6
712,535	1574,25
712,719	1401,6
712,903	1184,88
713,088	996,61
713,272	861,62
713,456	753,06
713,64	715
713,824	607,65
714,009	655,72
714,193	477,86
714,377	431,39
714,561	358,49
714,745	363,29
714,929	368,1
715,113	249,13
715,298	183,43
715,482	250,73
715,666	110,53
715,85	130,96
716,034	146,18
716,218	98,51
716,402	84,09
716,586	118,94
716,77	72,47
716,954	96,91
717,138	62,06
717,322	17,19
717,506	96,91
717,689	70,47
717,873	35,22
718,057	101,71
718,241	103,72
718,425	94,1
718,609	94,1
718,793	78,08
718,976	92,1
719,16	134,56
719,344	130,56
719,528	119,74
719,711	66,46
719,895	123,35
720,079	134,56
720,263	117,34
720,446	5,57
720,63	26
720,814	-22,87
720,997	49,64
721,181	44,83
721,364	68,87
721,548	57,65
721,732	66,06
721,915	81,69
722,099	53,24
722,282	122,54
722,466	78,08
722,649	-42,09
722,833	46,83
723,016	27,21
723,2	75,28
723,383	31,61
723,567	63,66
723,75	50,04
723,934	95,3
724,117	26,81
724,3	27,21
724,484	69,27
724,667	12,79
724,85	62,06
725,034	41,63
725,217	11,98
725,4	62,46
725,584	124,55
725,767	3,57
725,95	122,94
726,133	122,54
726,317	269,56
726,5	313,62
726,683	388,93
726,866	422,98
727,049	383,32
727,232	269,16
727,416	222,69
727,599	243,12
727,782	141,77
727,965	150,99
728,148	247,53
728,331	202,26
728,514	125,75
728,697	102,92
728,88	30,81
729,063	49,64
729,246	20
729,429	63,26
729,612	54,45
729,795	69,67
729,978	51,64
730,161	118,14
730,344	57,25
730,526	61,26
730,709	115,33
730,892	80,08
731,075	28,41
731,258	82,89
731,441	86,89
731,623	35,22
731,806	20,8
731,989	30,81
732,172	-0,83
732,354	21,6
732,537	112,13
732,72	-2,84
732,903	88,9
733,085	63,26
733,268	50,44
733,451	22
733,633	68,07
733,816	64,46
733,998	26,4
734,181	6,78
734,364	32,41
734,546	47,24
734,729	20
734,911	39,22
735,094	48,44
735,276	41,63
735,459	46,43
735,641	37,62
735,824	-10,85
736,006	77,28
736,188	76,88
736,371	49,64
736,553	86,09
736,736	88,49
736,918	82,09
737,1	297,6
737,283	762,67
737,465	1374,36
737,647	1692,42
737,83	1883,9
738,012	2006,88
738,194	1835,43
738,376	1392,79
738,559	1100,76
738,741	989,8
738,923	895,67
739,105	787,91
739,287	674,95
739,469	554,37
739,652	430,99
739,834	360,09
740,016	314,42
740,198	247,53
740,38	105,72
740,562	123,35
740,744	171,01
740,926	70,07
741,108	114,53
741,29	77,28
741,472	83,69
741,654	157,39
741,836	138,97
742,018	132,16
742,2	175,42
742,382	72,47
742,564	113,33
742,746	103,32
742,928	127,35
743,109	73,27
743,291	32,01
743,473	82,49
743,655	37,62
743,837	57,65
744,019	39,62
744,2	58,05
744,382	77,68
744,564	-11,25
744,746	-11,65
744,927	56,05
745,109	48,84
745,291	75,68
745,472	27,61
745,654	70,47
745,836	77,68
746,017	50,84
746,199	52,44
746,38	81,69
746,562	-41,69
746,744	118,94
746,925	50,84
747,107	93,7
747,288	90,1
747,47	18,79
747,651	-35,28
747,833	-26,07
748,014	47,24
748,195	117,74
748,377	64,46
748,558	25,6
748,74	56,05
748,921	108,12
749,102	235,11
749,284	505,5
749,465	1063,11
749,646	1267,8
749,828	1413,62
750,009	1565,44
750,19	1701,23
750,372	1849,05
750,553	2029,31
750,734	2218,38
750,915	2274,46
751,096	2491,98
751,278	2234,81
751,459	1800,18
751,64	1345,12
751,821	1225,34
752,002	956,55
752,183	865,62
752,364	687,36
752,546	518,72
752,727	389,73
752,908	318,03
753,089	178,63
753,27	177,02
753,451	118,94
753,632	98,51
753,813	1,97
753,994	42,03
754,175	20,8
754,356	60,45
754,536	68,47
754,717	-30,88
754,898	44,43
755,079	90,1
755,26	16,39
755,441	65,66
755,622	2,77
755,802	64,06
755,983	47,64
756,164	-6,04
756,345	37,22
756,526	44,03
756,706	34,42
756,887	22
757,068	88,09
757,248	66,46
757,429	38,02
757,61	48,84
757,79	55,65
757,971	20,8
758,152	43,23
758,332	-51,31
758,513	54,85
758,693	57,65
758,874	69,67
759,055	75,68
759,235	45,63
759,416	-20,06
759,596	4,37
759,777	102,92
759,957	-8,85
760,137	73,27
760,318	24,4
760,498	79,28
760,679	32,01
760,859	26,81
761,039	85,69
761,22	43,63
761,4	52,04
761,581	124,95
761,761	110,53
761,941	191,04
762,121	326,04
762,302	1177,67
762,482	3364,84
762,662	5580,06
762,842	6816,25
763,023	8016,79
763,203	8269,55
763,383	7754,81
763,563	5777,14
763,743	4656,32
763,923	4115,13
764,104	3641,25
764,284	2891,36
764,464	2480,36
764,644	1696,43
764,824	1168,46
765,004	721,01
765,184	492,68
765,364	289,19
765,544	201,46
765,724	113,73
765,904	120,54
766,084	68,87
766,264	47,24
766,444	99,71
766,624	63,26
766,804	-20,86
766,983	108,92
767,163	83,69
767,343	14,79
767,523	66,46
767,703	119,74
767,883	67,66
768,062	-12,05
768,242	9,98
768,422	26
768,602	43,23
768,781	32,01
768,961	-13,25
769,141	38,82
769,32	64,86
769,5	28,41
769,68	26,81
769,859	3,57
770,039	60,85
770,219	41,23
770,398	7,98
770,578	91,7
770,757	13,99
770,937	82,89
771,116	166,21
771,296	696,18
771,475	1501,34
771,655	2250,43
771,834	2669,84
772,014	3018,34
772,193	3080,83
772,373	2591,32
772,552	1947,19
772,731	1751,31
772,911	1558,23
773,09	1361,94
773,269	993,01
773,449	743,44
773,628	499,49
773,807	260,34
773,987	219,89
774,166	120,14
774,345	121,34
774,524	47,24
774,704	1,97
774,883	-18,86
775,062	97,31
775,241	90,9
775,42	56,85
775,6	58,45
775,779	-6,44
775,958	57,25
776,137	86,49
776,316	67,26
776,495	59,25
776,674	-15,66
776,853	19,6
777,032	35,62
777,211	46,03
777,39	-5,24
777,569	11,58
777,748	60,05
777,927	23,2
778,106	-16,86
778,285	13,99
778,464	-19,26
778,643	10,78
778,822	2,77
779	72,07
779,179	14,39
779,358	60,45
779,537	5,17
779,716	-2,04
779,894	15,59
780,073	26,4
780,252	-43,3
780,431	8,38
780,609	2,37
780,788	25,6
780,967	-58,92
781,145	63,26
781,324	6,78
781,503	-44,1
781,681	-8,85
781,86	4,37
782,039	15,59
782,217	-46,1
782,396	-24,47
782,574	-16,86
782,753	67,66
782,931	54,45
783,11	24
783,288	-40,49
783,467	39,62
783,645	-76,14
783,824	36,42
784,002	-63,33
784,18	-20,06
784,359	44,83
784,537	-13,65
784,716	27,21
784,894	68,07
785,072	-32,88
785,251	57,25
785,429	-39,69
785,607	44,83
785,785	2,37
785,964	26
786,142	-119,01
786,32	43,23
786,498	-50,51
786,677	31,61
786,855	32,81
787,033	32,41
787,211	-14,05
787,389	38,02
787,567	65,26
787,745	20,4
787,923	82,49
788,102	41,63
788,28	52,84
788,458	-16,06
788,636	1,17
788,814	28,01
788,992	33,21
789,17	52,84
789,348	54,85
789,526	59,65
789,703	18,39
789,881	7,98
790,059	-5,64
790,237	17,59
790,415	-7,64
790,593	52,44
790,771	49,64
790,949	-0,83
791,126	86,49
791,304	-10,05
791,482	-9,25
791,66	19,6
791,837	0,37
792,015	46,83
792,193	7,18
792,371	43,23
792,548	74,47
792,726	20,8
792,904	-20,46
793,081	7,58
793,259	-42,09
793,436	129,35
793,614	175,42
793,792	566,79
793,969	1208,12
794,147	1561,43
794,324	1850,65
794,502	2066,16
794,679	1982,04
794,857	1706,04
795,034	1257,79
795,212	969,77
795,389	799,93
795,567	578,81
795,744	431,39
795,921	238,71
796,099	157,8
796,276	156,99
796,453	106,52
796,631	48,04
796,808	16,39
796,985	60,45
797,163	95,71
797,34	32,01
797,517	54,45
797,694	35,62
797,872	32,81
798,049	21,6
798,226	61,26
798,403	22
798,58	74,47
798,757	38,02
798,935	70,47
799,112	15,99
799,289	-16,46
799,466	131,76
799,643	424,58
799,82	807,54
799,997	1041,88
800,174	1248,18
800,351	1432,04
800,528	2052,94
800,705	2493,18
800,882	2655,02
801,059	2773,99
801,236	2916,59
801,413	2620,16
801,589	2018,89
801,766	1359,14
801,943	1132,81
802,12	802,73
802,297	588,42
802,474	367,3
802,651	231,1
802,827	206,27
803,004	159
803,181	169,41
803,358	176,22
803,534	75,68
803,711	37,62
803,888	12,79
804,064	50,44
804,241	0,37
804,418	0,77
804,594	49,24
804,771	-28,47
804,947	117,34
805,124	9,18
805,301	94,5
805,477	99,31
805,654	98,51
805,83	-27,67
806,007	41,23
806,183	52,44
806,36	101,31
806,536	32,81
806,712	-19,66
806,889	44,43
807,065	21,6
807,242	33,21
807,418	69,27
807,594	77,68
807,771	22
807,947	6,78
808,123	52,44
808,3	52,04
808,476	35,62
808,652	4,37
808,829	59,65
809,005	140,17
809,181	168,61
809,357	591,22
809,533	1202,51
809,71	1911,54
809,886	2165,91
810,062	2457,13
810,238	2578,1
810,414	2846,89
810,59	3535,49
810,766	5532,79
810,942	6520,62
811,118	7447,96
811,294	7647,85
811,47	7318,58
811,646	5520,77
811,822	3434,95
811,998	2679,45
812,174	1734,48
812,35	1286,23
812,526	833,58
812,702	570,39
812,878	506,7
813,054	345,67
813,23	249,53
813,405	275,97
813,581	202,66
813,757	169,41
813,933	144,98
814,109	51,64
814,284	186,64
814,46	99,71
814,636	38,42
814,812	7,98
814,987	-0,43
815,163	10,38
815,339	51,64
815,514	9,58
815,69	9,18
815,866	8,78
816,041	28,41
816,217	94,1
816,392	26
816,568	11,58
816,743	67,66
816,919	44,83
817,094	56,85
817,27	-3,64
817,445	71,27
817,621	1,97
817,796	38,02
817,972	-15,66
818,147	-26,47
818,322	-5,24
818,498	98,91
818,673	40,43
818,849	-26,47
819,024	-22,07
819,199	58,45
819,375	41,23
819,55	50,44
819,725	54,45
819,9	60,05
820,076	64,06
820,251	-26,87
820,426	93,7
820,601	83,69
820,776	23,2
820,952	63,66
821,127	40,83
821,302	46,03
821,477	10,38
821,652	-2,44
821,827	22
822,002	14,39
822,177	11,58
822,352	19,6
822,527	7,98
822,702	14,79
822,877	48,04
823,052	12,38
823,227	3,17
823,402	16,79
823,577	32,41
823,752	17,19
823,927	-53,71
824,102	74,88
824,277	84,89
824,451	30,41
824,626	9,18
824,801	14,39
824,976	92,5
825,151	13,59
825,325	129,35
825,5	332,05
825,675	704,59
825,85	978,59
826,024	1096,36
826,199	1124,8
826,374	1063,11
826,548	874,43
826,723	500,29
826,897	359,29
827,072	238,31
827,247	181,83
827,421	83,69
827,596	77,28
827,77	66,46
827,945	84,89
828,119	66,86
828,294	97,31
828,468	1,97
828,643	54,85
828,817	40,83
828,992	43,23
829,166	-32,48
829,34	64,46
829,515	27,61
829,689	41,63
829,864	11,98
830,038	34,82
830,212	86,09
830,386	-13,25
830,561	88,9
830,735	-22,47
830,909	76,48
831,084	-0,83
831,258	22,4
831,432	59,25
831,606	-2,04
831,78	2,37
831,954	76,08
832,129	67,26
832,303	-6,84
832,477	-16,46
832,651	92,5
832,825	-11,65
832,999	77,28
833,173	-19,26
833,347	8,78
833,521	-0,83
833,695	94,5
833,869	29,61
834,043	-22,87
834,217	-53,71
834,391	5,57
834,565	0,77
834,739	20,8
834,913	-19,66
835,086	-41,29
835,26	-43,7
835,434	8,78
835,608	33,21
835,782	23,2
835,956	-4,04
836,129	-30,08
836,303	51,24
836,477	-10,05
836,651	27,61
836,824	34,42
836,998	-0,43
837,172	19,6
837,345	57,65
837,519	-19,66
837,693	26,81
837,866	5,57
838,04	-0,03
838,213	-30,88
838,387	-11,65
838,56	-40,09
838,734	20,8
838,907	76,88
839,081	47,24
839,254	17,99
839,428	40,02
839,601	110,93
839,775	170,21
839,948	662,13
840,122	1192,09
840,295	1415,62
840,468	1492,13
840,642	1544,61
840,815	1358,74
840,988	906,08
841,162	527,93
841,335	642,5
841,508	1021,85
841,682	1601,49
841,855	2207,17
842,028	2336,55
842,201	2463,94
842,374	2288,88
842,548	1899,92
842,721	1169,26
842,894	706,99
843,067	508,3
843,24	382,52
843,413	306,41
843,586	264,35
843,759	219,89
843,932	195,85
844,105	100,51
844,278	80,08
844,451	108,52
844,624	104,12
844,797	43,63
844,97	58,85
845,143	49,24
845,316	67,26
845,489	-27,67
845,662	1,97
845,835	59,65
846,008	-16,46
846,18	34,02
846,353	94,9
846,526	52,84
846,699	-7,24
846,872	58,05
847,044	18,39
847,217	-39,69
847,39	-4,04
847,563	65,66
847,735	43,63
847,908	46,03
848,081	-17,66
848,253	-20,06
848,426	-44,5
848,598	49,64
848,771	52,04
848,944	-70,54
849,116	-74,54
849,289	-8,04
849,461	-24,87
849,634	22
849,806	-27,67
849,979	4,77
850,151	44,83
850,324	84,89
850,496	17,59
850,668	-34,48
850,841	40,43
851,013	98,91
851,186	165,81
851,358	310,02
851,53	540,35
851,703	553,57
851,875	590,82
852,047	535,94
852,219	493,88
852,392	387,33
852,564	251,93
852,736	84,49
852,908	85,69
853,081	150,99
853,253	104,12
853,425	110,13
853,597	93,3
853,769	22
853,941	82,09
854,113	4,77
854,285	62,46
854,457	50,44
854,63	4,37
854,802	92,1
854,974	10,38
855,146	56,45
855,318	80,08
855,489	2,37
855,661	78,48
855,833	-17,66
856,005	74,07
856,177	-40,09
856,349	0,77
856,521	7,18
856,693	-28,47
856,865	-73,34
857,036	130,16
857,208	4,37
857,38	-18,86
857,552	5,57
857,723	35,22
857,895	-46,9
858,067	0,77
858,239	37,22
858,41	-88,16
858,582	56,85
858,754	-17,66
858,925	-69,73
859,097	36,82
859,268	35,22
859,44	-3,24
859,612	46,83
859,783	-79,75
859,955	-44,1
860,126	-5,64
860,298	-16,86
860,469	54,45
860,641	-25,67
860,812	-10,05
860,983	-48,9
861,155	0,77
861,326	3,57
861,498	3,17
861,669	-22,87
861,84	48,44
862,012	60,05
862,183	45,63
862,354	32,01
862,526	-12,45
862,697	-0,03
862,868	-0,03
863,039	-32,08
863,211	-86,56
863,382	-14,85
863,553	1,17
863,724	-52,91
863,895	-21,26
864,066	48,04
864,238	-4,84
864,409	47,64
864,58	-57,32
864,751	60,45
864,922	-4,44
865,093	55,25
865,264	42,03
865,435	-32,88
865,606	62,46
865,777	7,58
865,948	50,04
866,119	79,28
866,29	110,93
866,461	80,88
866,632	42,43
866,802	110,93
866,973	54,85
867,144	51,64
867,315	50,84
867,486	78,08
867,657	87,69
867,827	59,65
867,998	40,02
868,169	2,37
868,34	59,25
868,51	2,77
868,681	55,25
868,852	-18,46
869,022	29,21
869,193	54,05
869,364	41,63
869,534	-43,3
869,705	13,99
869,875	5,57
870,046	1,97
870,217	9,18
870,387	-3,64
870,558	35,22
870,728	28,81
870,899	-16,06
871,069	-39,69
871,239	38,82
871,41	-6,04
871,58	26,4
871,751	-2,84
871,921	-2,04
872,091	-16,46
872,262	15,99
872,432	68,87
872,602	-77,75
872,773	9,98
872,943	-8,04
873,113	24,8
873,284	-18,46
873,454	-10,85
873,624	8,38
873,794	19,6
873,964	26,4
874,135	-12,05
874,305	9,98
874,475	53,24
874,645	-46,1
874,815	56,05
874,985	-22,47
875,155	-34,08
875,325	-12,85
875,495	-22,87
875,665	23,6
875,835	7,58
876,005	18,79
876,175	-4,84
876,345	13,59
876,515	8,78
876,685	74,47
876,855	70,87
877,025	-8,45
877,195	-73,74
877,365	0,37
877,534	27,61
877,704	15,99
877,874	68,87
878,044	-8,04
878,214	45,23
878,383	38,82
878,553	64,06
878,723	-3,24
878,892	56,45
879,062	-25,67
879,232	0,77
879,401	-21,26
879,571	38,42
879,741	-88,96
879,91	-0,03
880,08	38,02
880,249	-22,87
880,419	10,78
880,589	-22,07
880,758	36,42
880,928	50,04
881,097	-29,28
881,267	14,39
881,436	-26,07
881,605	-4,04
881,775	-71,74
881,944	20,4
882,114	36,82
882,283	-17,26
882,452	54,45
882,622	-30,48
882,791	-37,29
882,96	-12,05
883,13	59,65
883,299	55,25
883,468	5,57
883,637	-20,46
883,807	24
883,976	17,19
884,145	-8,04
884,314	-5,24
884,483	-25,27
884,652	14,39
884,822	25,6
884,991	-1,64
885,16	12,38
885,329	12,79
885,498	-2,84
885,667	43,23
885,836	9,98
886,005	-34,88
886,174	22,8
886,343	44,83
886,512	-2,84
886,681	37,22
886,85	44,83
887,019	30,01
887,187	22
887,356	22
887,525	-69,73
887,694	-2,44
887,863	-35,28
888,032	-23,27
888,2	-6,04
888,369	-15,26
888,538	20,8
888,707	-8,45
888,875	-34,48
889,044	-34,48
889,213	50,84
889,381	15,99
889,55	-2,04
889,719	-8,85
889,887	30,41
890,056	-82,55
890,224	78,88
890,393	-24,87
890,562	37,62
890,73	32,41
890,899	18,39
891,067	34,82
891,236	18,39
891,404	77,28
891,573	22,4
891,741	28,01
891,909	-19,66
892,078	40,43
892,246	-2,84
892,415	0,37
892,583	32,01
892,751	-8,45
892,92	1,17
893,088	26
893,256	23,2
893,424	-26,47
893,593	29,21
893,761	-5,24
893,929	-36,49
894,097	16,79
894,265	-1,24
894,434	43,63
894,602	66,86
894,77	9,98
894,938	10,78
895,106	27,21
895,274	51,24
895,442	-15,26
895,61	61,26
895,778	-27,27
895,946	12,38
896,114	12,79
896,282	-33,28
896,45	11,98
896,618	58,85
896,786	15,19
896,954	18,79
897,122	13,99
897,29	-13,25
897,458	-2,84
897,625	7,98
897,793	32,81
897,961	48,84
898,129	-25,27
898,297	49,24
898,464	-8,45
898,632	13,59
898,8	52,44
898,968	-22,47
899,135	50,04
899,303	-24,47
899,471	-43,3
899,638	30,81
899,806	-5,64
899,973	32,81
900,141	76,08
900,309	1,57
900,476	22
900,644	66,86
900,811	-28,07
900,979	36,42
901,146	20
901,314	12,79
901,481	-22,87
901,649	30,81
901,816	-2,44
901,983	44,83
902,151	-2,44
