Data from Subt4__0__14-26-48-621.txt Node

Date: Thu Feb 19 14:26:48 CET 2026
User: Versuch 234
Spectrometer: USB4F05580
Trigger mode: 4
Integration Time (sec): 1,000000E-1
Scans to average: 5
Electric dark correction enabled: true
Nonlinearity correction enabled: false
Boxcar width: 0
XAxis mode: Wavelengths
Number of Pixels in Spectrum: 3648
>>>>>Begin Spectral Data<<<<<
197,409	3,51
197,623	3,51
197,837	3,51
198,051	42,76
198,265	24,74
198,479	-63,39
198,693	20,33
198,907	-28,94
199,122	37,15
199,336	-15,32
199,55	5,91
199,763	20,73
199,977	22,73
200,191	8,71
200,405	15,92
200,619	14,72
200,833	-38,56
201,047	50,77
201,261	112,06
201,475	131,29
201,689	103,65
201,903	106,05
202,117	59,19
202,331	68
202,545	92,43
202,758	144,11
202,972	63,99
203,186	44,36
203,4	104,05
203,614	108,46
203,828	68,4
204,041	113,66
204,255	102,85
204,469	98,04
204,683	131,69
204,897	93,24
205,11	98,04
205,324	87,23
205,538	120,47
205,752	83,22
205,965	131,69
206,179	143,71
206,393	-4,91
206,606	101,65
206,82	80,42
207,034	119,67
207,248	105,65
207,461	70,8
207,675	94,04
207,889	112,86
208,102	134,49
208,316	94,04
208,529	84,82
208,743	84,82
208,957	106,05
209,17	34,35
209,384	131,29
209,597	58,79
209,811	150,52
210,025	140,1
210,238	109,26
210,452	72
210,665	156,13
210,879	171,35
211,092	76,01
211,306	75,61
211,519	40,76
211,733	117,67
211,946	148,92
212,16	134,49
212,373	61,59
212,587	74,01
212,8	108,46
213,014	52,38
213,227	147,71
213,44	94,04
213,654	134,9
213,867	164,94
214,081	120,88
214,294	61,19
214,507	168,54
214,721	120,88
214,934	94,84
215,148	88,43
215,361	164,94
215,574	148,52
215,788	33,95
216,001	182,16
216,214	91,63
216,428	124,08
216,641	84,42
216,854	128,09
217,067	116,87
217,281	115,27
217,494	130,89
217,707	95,64
217,92	91,63
218,134	107,26
218,347	138,1
218,56	141,3
218,773	45,97
218,986	154,12
219,2	101,65
219,413	81,22
219,626	55,98
219,839	144,91
220,052	143,71
220,265	74,81
220,479	104,05
220,692	160,13
220,905	84,42
221,118	145,71
221,331	70,4
221,544	123,28
221,757	140,5
221,97	152,92
222,183	58,79
222,396	120,07
222,609	112,86
222,822	44,76
223,035	105,25
223,249	102,45
223,462	98,84
223,675	44,36
223,887	138,9
224,1	170,95
224,313	115,67
224,526	145,31
224,739	92,83
224,952	160,13
225,165	111,26
225,378	120,47
225,591	170,15
225,804	151,32
226,017	117,67
226,23	137,7
226,443	81,22
226,656	94,44
226,868	31,95
227,081	161,73
227,294	65,19
227,507	126,48
227,72	93,64
227,933	120,47
228,145	139,3
228,358	81,22
228,571	121,28
228,784	65,6
228,997	17,53
229,209	106,05
229,422	133,69
229,635	129,69
229,848	128,89
230,06	75,61
230,273	62,39
230,486	132,09
230,698	92,43
230,911	61,19
231,124	72
231,336	92,43
231,549	152,52
231,762	136,9
231,974	11,92
232,187	23,53
232,4	123,28
232,612	116,47
232,825	85,62
233,038	112,46
233,25	148,11
233,463	122,88
233,675	86,83
233,888	187,37
234,1	168,54
234,313	140,1
234,526	104,45
234,738	92,83
234,951	45,57
235,163	75,61
235,376	128,09
235,588	48,77
235,801	95,24
236,013	69,2
236,226	145,31
236,438	104,45
236,65	169,35
236,863	118,47
237,075	176,16
237,288	126,88
237,5	43,56
237,713	82,42
237,925	68,8
238,137	70,8
238,35	161,33
238,562	118,47
238,774	165,34
238,987	200,19
239,199	82,82
239,411	93,64
239,624	108,46
239,836	158,13
240,048	86,43
240,261	149,72
240,473	154,92
240,685	104,85
240,897	63,99
241,11	78,41
241,322	160,13
241,534	88,83
241,746	122,08
241,959	122,88
242,171	141,3
242,383	97,64
242,595	57,18
242,807	129,69
243,02	126,88
243,232	131,29
243,444	112,06
243,656	129,69
243,868	138,5
244,08	90,03
244,293	47,97
244,505	159,73
244,717	99,64
244,929	74,41
245,141	106,05
245,353	146,51
245,565	117,67
245,777	106,05
245,989	94,44
246,201	98,04
246,413	112,46
246,625	108,06
246,837	119,27
247,049	138,1
247,261	118,47
247,473	117,27
247,685	121,68
247,897	142,11
248,109	86,02
248,321	150,12
248,533	25,54
248,745	100,45
248,957	144,91
249,169	104,85
249,381	132,89
249,593	151,72
249,804	175,35
250,016	133,29
250,228	88,43
250,44	146,91
250,652	105,25
250,864	127,69
251,075	61,59
251,287	138,1
251,499	164,54
251,711	115,67
251,923	116,47
252,134	151,32
252,346	71,6
252,558	189,78
252,77	100,05
252,982	124,48
253,193	130,49
253,405	98,44
253,617	142,51
253,828	109,66
254,04	168,14
254,252	202,59
254,463	161,73
254,675	70
254,887	35,15
255,098	114,47
255,31	76,81
255,522	189,78
255,733	146,91
255,945	167,74
256,157	157,33
256,368	104,05
256,58	141,3
256,791	99,24
257,003	142,51
257,214	125,68
257,426	142,91
257,637	57,18
257,849	100,85
258,061	185,37
258,272	172,55
258,484	127,28
258,695	123,28
258,907	132,89
259,118	130,89
259,329	82,02
259,541	113,66
259,752	140,9
259,964	198,59
260,175	102,45
260,387	63,19
260,598	133,29
260,809	101,65
261,021	102,05
261,232	98,04
261,444	161,33
261,655	145,31
261,866	144,11
262,078	137,3
262,289	115,27
262,5	125,68
262,712	100,85
262,923	144,51
263,134	94,04
263,345	182,56
263,557	25,54
263,768	59,99
263,979	86,43
264,191	85,62
264,402	81,22
264,613	133,69
264,824	94,44
265,035	37,55
265,247	120,88
265,458	116,87
265,669	91,63
265,88	140,5
266,091	111,66
266,302	111,26
266,514	96,04
266,725	132,49
266,936	101,65
267,147	92,03
267,358	109,66
267,569	125,28
267,78	174,95
267,991	114,47
268,202	169,35
268,414	100,05
268,625	160,53
268,836	80,82
269,047	187,77
269,258	96,04
269,469	81,62
269,68	126,48
269,891	106,85
270,102	197,39
270,313	88,03
270,524	114,07
270,735	100,85
270,945	88,43
271,156	202,59
271,367	164,54
271,578	141,71
271,789	72,4
272	145,31
272,211	119,27
272,422	109,66
272,633	179,76
272,844	108,86
273,054	71,2
273,265	117,27
273,476	122,08
273,687	99,24
273,898	78,81
274,109	124,48
274,319	103,65
274,53	222,22
274,741	146,11
274,952	117,67
275,162	176,16
275,373	146,91
275,584	102,85
275,795	82,02
276,005	89,63
276,216	110,06
276,427	148,92
276,637	59,99
276,848	91,23
277,059	38,76
277,269	118,47
277,48	133,69
277,691	115,27
277,901	88,83
278,112	111,26
278,323	139,3
278,533	94,44
278,744	173,75
278,954	98,04
279,165	170,95
279,376	154,52
279,586	71,6
279,797	124,48
280,007	104,45
280,218	105,25
280,428	180,16
280,639	153,32
280,849	68,4
281,06	127,69
281,27	69,2
281,481	122,08
281,691	173,75
281,902	73,21
282,112	114,47
282,322	221,02
282,533	136,5
282,743	153,32
282,954	161,73
283,164	93,24
283,374	139,7
283,585	172,15
283,795	95,24
284,006	120,07
284,216	106,45
284,426	183,77
284,637	138,9
284,847	85,22
285,057	171,35
285,268	193,38
285,478	69,6
285,688	165,34
285,898	106,85
286,109	135,7
286,319	116,47
286,529	189,78
286,739	67,2
286,95	144,11
287,16	166,14
287,37	192,98
287,58	82,82
287,79	156,13
288,001	116,47
288,211	166,14
288,421	129,29
288,631	140,5
288,841	93,24
289,051	134,09
289,261	117,67
289,471	82,42
289,682	87,23
289,892	128,09
290,102	65,6
290,312	82,42
290,522	94,44
290,732	156,13
290,942	122,88
291,152	146,51
291,362	166,54
291,572	122,08
291,782	156,53
291,992	176,96
292,202	116,87
292,412	110,86
292,622	149,32
292,832	167,34
293,042	134,49
293,252	86,43
293,462	184,17
293,672	124,88
293,881	165,74
294,091	116,47
294,301	136,9
294,511	183,77
294,721	244,65
294,931	200,19
295,141	119,67
295,35	196,99
295,56	132,49
295,77	163,74
295,98	89,63
296,19	163,74
296,4	146,11
296,609	104,45
296,819	182,97
297,029	191,38
297,239	136,5
297,448	163,34
297,658	108,46
297,868	183,77
298,077	117,67
298,287	112,06
298,497	160,93
298,706	123,68
298,916	72,81
299,126	146,51
299,335	186,17
299,545	178,16
299,755	130,09
299,964	149,32
300,174	220,62
300,384	162,54
300,593	130,09
300,803	121,68
301,012	182,97
301,222	137,7
301,431	119,67
301,641	154,52
301,851	163,74
302,06	172,55
302,27	165,74
302,479	154,12
302,689	153,32
302,898	130,09
303,107	194,98
303,317	186,57
303,526	225,03
303,736	189,37
303,945	178,96
304,155	142,51
304,364	174,55
304,574	158,13
304,783	151,32
304,992	170,55
305,202	142,11
305,411	187,77
305,62	184,57
305,83	197,79
306,039	202,19
306,248	190,98
306,458	152,92
306,667	67,2
306,876	127,28
307,086	154,12
307,295	172,55
307,504	154,52
307,713	193,38
307,923	108,06
308,132	180,96
308,341	156,53
308,55	184,57
308,76	148,11
308,969	189,78
309,178	168,94
309,387	174,15
309,596	122,48
309,805	208,2
310,015	179,76
310,224	178,96
310,433	150,92
310,642	116,87
310,851	160,53
311,06	198,19
311,269	198,59
311,478	142,11
311,687	99,64
311,896	196,58
312,106	202,19
312,315	251,06
312,524	229,83
312,733	249,46
312,942	160,13
313,151	229,03
313,36	180,16
313,569	237,04
313,778	182,16
313,987	134,49
314,195	242,25
314,404	250,66
314,613	216,21
314,822	275,5
315,031	201,39
315,24	161,33
315,449	254,67
315,658	125,28
315,867	231,03
316,076	174,95
316,284	230,23
316,493	255,87
316,702	188,97
316,911	234,64
317,12	186,57
317,329	281,51
317,537	258,27
317,746	108,06
317,955	231,44
318,164	282,71
318,372	190,98
318,581	247,06
318,79	237,44
318,999	197,39
319,207	188,97
319,416	179,76
319,625	211,81
319,833	237,44
320,042	257,47
320,251	200,19
320,459	211,81
320,668	201,79
320,877	253,07
321,085	230,23
321,294	182,56
321,502	273,1
321,711	198,19
321,92	250,26
322,128	241,45
322,337	209,8
322,545	281,11
322,754	247,06
322,962	223,82
323,171	186,97
323,379	223,42
323,588	240,25
323,796	177,76
324,005	214,21
324,213	228,63
324,422	289,12
324,63	206,2
324,839	237,04
325,047	237,04
325,256	244,25
325,464	288,72
325,672	292,32
325,881	245,86
326,089	283,51
326,297	275,5
326,506	261,08
326,714	281,51
326,923	277,5
327,131	260,28
327,339	322,77
327,548	275,9
327,756	248,26
327,964	244,65
328,172	239,45
328,381	288,32
328,589	318,76
328,797	220,22
329,005	287,92
329,214	213,41
329,422	255,07
329,63	277,5
329,838	331,18
330,046	266,29
330,255	313,96
330,463	307,15
330,671	255,87
330,879	362,83
331,087	296,33
331,295	289,92
331,503	308,75
331,712	281,11
331,92	264,68
332,128	327,17
332,336	326,37
332,544	282,71
332,752	267,49
332,96	290,32
333,168	265,08
333,376	174,15
333,584	308,75
333,792	364,83
334	335,59
334,208	314,76
334,416	341,19
334,624	307,15
334,832	346,8
335,04	290,72
335,248	290,32
335,456	298,33
335,664	308,75
335,872	340,79
336,08	243,85
336,287	310,75
336,495	371,24
336,703	348,81
336,911	341,6
337,119	311,95
337,327	374,84
337,535	370,84
337,742	344
337,95	332,78
338,158	383,66
338,366	324,77
338,573	345,2
338,781	334,38
338,989	385,66
339,197	400,88
339,404	350,41
339,612	342,8
339,82	350,41
340,028	331,58
340,235	422,11
340,443	309,15
340,651	375,64
340,858	258,27
341,066	328,78
341,274	429,32
341,481	434,53
341,689	404,09
341,896	334,38
342,104	456,16
342,312	371,24
342,519	429,72
342,727	363,63
342,934	384,46
343,142	378,05
343,349	373,24
343,557	485,4
343,765	342
343,972	406,09
344,18	418,91
344,387	435,73
344,594	444,54
344,802	490,61
345,009	406,49
345,217	422,11
345,424	432,13
345,632	404,49
345,839	423,71
346,047	441,74
346,254	391,67
346,461	513,04
346,669	451,75
346,876	453,36
347,083	476,99
347,291	459,37
347,498	427,72
347,705	454,56
347,913	436,93
348,12	460,57
348,327	455,76
348,535	420,51
348,742	418,91
348,949	481,4
349,156	477,79
349,364	438,54
349,571	493,82
349,778	485
349,985	463,37
350,192	520,25
350,4	484,6
350,607	506,23
350,814	518,65
351,021	453,36
351,228	471,78
351,435	524,66
351,643	474,99
351,85	507,84
352,057	530,67
352,264	543,49
352,471	517,85
352,678	589,96
352,885	505,43
353,092	543,09
353,299	489,41
353,506	528,27
353,713	534,68
353,92	488,21
354,127	589,55
354,334	582,34
354,541	564,72
354,748	591,16
354,955	596,77
355,162	568,32
355,369	524,66
355,576	645,64
355,783	618,4
355,99	532,67
356,197	525,06
356,404	585,55
356,611	560,71
356,817	554,3
357,024	582,34
357,231	603,57
357,438	596,36
357,645	564,72
357,852	616,79
358,058	666,47
358,265	605,58
358,472	645,24
358,679	616,39
358,885	602,37
359,092	687,7
359,299	533,87
359,506	653,65
359,712	625,21
359,919	595,96
360,126	610,79
360,333	573,13
360,539	670,47
360,746	618,8
360,953	722,95
361,159	620,8
361,366	608,78
361,572	718,94
361,779	665,26
361,986	653,25
362,192	649,24
362,399	717,34
362,605	678,88
362,812	659,26
363,019	685,29
363,225	676,88
363,432	754,59
363,638	681,69
363,845	671,27
364,051	742,18
364,258	741,78
364,464	784,24
364,671	700,52
364,877	775,42
365,084	769,01
365,29	702,12
365,496	786,24
365,703	694,91
365,909	729,76
366,116	770,22
366,322	787,84
366,528	739,77
366,735	776,63
366,941	759,8
367,147	796,25
367,354	866,76
367,56	832,71
367,766	832,31
367,973	861,95
368,179	808,67
368,385	827,1
368,592	851,93
368,798	914,02
369,004	794,25
369,21	803,46
369,417	889,19
369,623	799,86
369,829	851,13
370,035	818,29
370,241	877,57
370,448	865,55
370,654	902,81
370,86	845,53
371,066	872,36
371,272	965,3
371,478	908,02
371,684	956,49
371,891	916,83
372,097	894
372,303	881,58
372,509	877,97
372,715	893,6
372,921	878,77
373,127	897,2
373,333	968,1
373,539	879,17
373,745	964,1
373,951	914,83
374,157	955,28
374,363	929,25
374,569	1034,6
374,775	955,69
374,981	965,7
375,187	928,05
375,393	1012,17
375,599	991,74
375,804	1014,17
376,01	936,46
376,216	1046,62
376,422	1001,35
376,628	1083,87
376,834	1031,4
377,04	1044,21
377,246	1043,41
377,451	1033
377,657	991,34
377,863	1116,32
378,069	1001,75
378,274	1114,32
378,48	1113,11
378,686	1130,34
378,892	1053,83
379,097	1107,51
379,303	1085,47
379,509	1057,83
379,715	1192,03
379,92	1203,24
380,126	1125,53
380,332	1166,39
380,537	1139,95
380,743	1201,24
380,949	1168,39
381,154	1186,42
381,36	1171,2
381,565	1199,64
381,771	1187,62
381,977	1174,8
382,182	1185,22
382,388	1286,57
382,593	1224,48
382,799	1268,94
383,004	1230,08
383,21	1246,91
383,415	1251,71
383,621	1252,52
383,826	1289,37
384,032	1365,48
384,237	1282,16
384,443	1331,03
384,648	1306,59
384,854	1436,78
385,059	1316,21
385,265	1399,53
385,47	1345,85
385,675	1473,24
385,881	1391,52
386,086	1373,49
386,291	1401,53
386,497	1496,47
386,702	1350,26
386,907	1460,02
387,113	1409,94
387,318	1569,78
387,523	1471,23
387,729	1499,27
387,934	1547,34
388,139	1565,37
388,344	1514,9
388,55	1608,23
388,755	1515,3
388,96	1569,37
389,165	1674,33
389,371	1665,11
389,576	1524,11
389,781	1728,81
389,986	1579,39
390,191	1680,74
390,396	1600,22
390,601	1686,75
390,807	1657,5
391,012	1780,88
391,217	1691,55
391,422	1824,54
391,627	1713,18
391,832	1717,99
392,037	1804,12
392,242	1847,38
392,447	1852,99
392,652	1833,36
392,857	1876,22
393,062	1899,45
393,267	1950,33
393,472	1874,62
393,677	1830,95
393,882	1944,72
394,087	1983,98
394,292	2001,2
394,497	1970,76
394,702	2045,67
394,907	2045,26
395,112	2081,72
395,317	2078,11
395,521	2123,78
395,726	2115,77
395,931	2136,2
396,136	2083,32
396,341	2148,21
396,546	2064,89
396,75	2258,37
396,955	2219,12
397,16	2199,49
397,365	2263,98
397,57	2347,7
397,774	2272,79
397,979	2312,05
398,184	2294,83
398,389	2455,86
398,593	2431,02
398,798	2481,9
399,003	2366,93
399,207	2445,85
399,412	2510,34
399,617	2460,27
399,821	2493,11
400,026	2685,39
400,231	2660,16
400,435	2584,85
400,64	2606,08
400,844	2576,03
401,049	2601,67
401,254	2697,01
401,458	2660,56
401,663	2733,46
401,867	2844,42
402,072	2807,57
402,276	2838,82
402,481	2906,11
402,685	2836,01
402,89	2849,63
403,094	2998,65
403,299	2919,73
403,503	3021,88
403,708	3041,11
403,912	2904,11
404,116	2985,03
404,321	3128,84
404,525	3003,85
404,73	3108,01
404,934	3174,1
405,138	3112,81
405,343	3255,82
405,547	3130,44
405,751	3255,02
405,956	3036,3
406,16	3293,07
406,364	3271,04
406,569	3408,04
406,773	3220,57
406,977	3306,29
407,181	3464,92
407,386	3442,09
407,59	3365,58
407,794	3438,08
407,998	3424,46
408,202	3498,17
408,407	3421,26
408,611	3484,95
408,815	3482,15
409,019	3500,17
409,223	3466,93
409,427	3649,59
409,632	3693,25
409,836	3704,47
410,04	3696,46
410,244	3698,46
410,448	3560,66
410,652	3816,23
410,856	3673,22
411,06	3778,98
411,264	3832,26
411,468	3829,85
411,672	3730,51
411,876	3857,89
412,08	3793,8
412,284	4113,06
412,488	3837,06
412,692	4165,94
412,896	3875,52
413,1	3914,77
413,304	3949,63
413,508	4018,53
413,712	3908,37
413,916	4067
414,12	3978,07
414,323	4091,43
414,527	3936,01
414,731	4078,61
414,935	4088,23
415,139	4223,62
415,343	4030,54
415,546	4252,46
415,75	3998,5
415,954	4205,6
416,158	4064,99
416,361	4005,71
416,565	4126,28
416,769	4209,2
416,973	4212,01
417,176	4351,41
417,38	4100,64
417,584	4114,26
417,788	4318,56
417,991	4240,45
418,195	4287,72
418,398	4382,25
418,602	4423,11
418,806	4310,95
419,009	4339,79
419,213	4501,23
419,417	4349
419,62	4500,82
419,824	4388,26
420,027	4444,74
420,231	4409,09
420,434	4525,26
420,638	4555,3
420,841	4612,59
421,045	4557,31
421,248	4576,93
421,452	4540,48
421,655	4701,11
421,859	4660,66
422,062	4574,53
422,266	4722,35
422,469	4692,7
422,673	4608,18
422,876	4832,51
423,079	4494,01
423,283	4693,9
423,486	4851,33
423,689	4818,48
423,893	4951,88
424,096	4762,4
424,299	4881,78
424,503	4759,2
424,706	4758,8
424,909	4781,63
425,113	4874,57
425,316	4977,92
425,519	4697,11
425,722	5104,5
425,926	4774,02
426,129	4959,89
426,332	4751,59
426,535	5014,37
426,739	4862,55
426,942	4873,77
427,145	4773,22
427,348	5109,31
427,551	4868,16
427,754	4988,73
427,957	4957,89
428,161	4951,88
428,364	4973,51
428,567	5233,49
428,77	5050,02
428,973	5259,12
429,176	5259,92
429,379	5140,95
429,582	5038
429,785	5265,13
429,988	5187,42
430,191	5546,74
430,394	5271,54
430,597	5346,45
430,8	5323,62
431,003	5642,48
431,206	5153,77
431,409	5547,14
431,612	5360,07
431,815	5636,47
432,018	5901,66
432,221	5817,53
432,423	5724,2
432,626	5978,97
432,829	5836,36
433,032	6009,41
433,235	6055,08
433,438	6017,42
433,64	5749,03
433,843	6089,13
434,046	5999,4
434,249	5890,04
434,452	6173,25
434,654	5992,19
434,857	5998,6
435,06	6055,48
435,263	6278,6
435,465	6301,03
435,668	6236,94
435,871	6440,04
436,073	6192,48
436,276	6524,96
436,479	6290,22
436,681	6680,78
436,884	6370,33
437,087	6416,8
437,289	6562,21
437,492	6710,03
437,694	6599,87
437,897	6597,46
438,1	6466,47
438,302	6489,31
438,505	6641,13
438,707	6607,08
438,91	6627,91
439,112	6672,77
439,315	6493,71
439,517	6883,88
439,72	6845,02
439,922	6855,44
440,125	6826,2
440,327	6752,89
440,529	6764,51
440,732	7403,43
440,934	6705,22
441,137	7040,51
441,339	6859,44
441,541	7159,08
441,744	6855,84
441,946	7055,73
442,148	7098,59
442,351	7328,52
442,553	6903,91
442,755	7276,85
442,958	7058,13
443,16	7203,14
443,362	6988,03
443,565	7095,39
443,767	7190,72
443,969	7208,35
444,171	7018,47
444,373	7330,53
444,576	7398,63
444,778	7463,12
444,98	7208,75
445,182	7607,33
445,384	7317,71
445,586	7733,51
445,789	7380,6
445,991	7430,67
446,193	7526,01
446,395	7622,15
446,597	7404,23
446,799	7448,3
447,001	7703,87
447,203	7713,88
447,405	7462,32
447,607	7586,5
447,809	7696,66
448,011	7662,21
448,213	7680,63
448,415	7670,62
448,617	7634,97
448,819	7779,98
449,021	7392,62
449,223	8282,31
449,425	7710,28
449,627	8147,31
449,829	7532,02
450,031	8311,95
450,233	7662,61
450,435	7898,55
450,636	7895,35
450,838	7831,25
451,04	8063,19
451,242	7740,72
451,444	7688,65
451,646	7840,07
451,847	7998,29
452,049	7882,93
452,251	8124,08
452,453	8184,16
452,654	7983,47
452,856	8146,91
453,058	8714,13
453,26	8296,73
453,461	8118,07
453,663	8186,57
453,865	8769,01
454,066	8974,91
454,268	8343,19
454,47	8355,61
454,671	8466,17
454,873	8413,3
455,074	8226,63
455,276	8597,96
455,478	8252,26
455,679	8651,24
455,881	8947,27
456,082	8825,89
456,284	8650,04
456,485	8809,07
456,687	8960,09
456,888	9157,57
457,09	8748,58
457,291	8925,64
457,493	8879,17
457,694	9264,13
457,896	9050,62
458,097	9179,21
458,299	9212,86
458,5	9051,82
458,701	9177,2
458,903	9644,28
459,104	9586,6
459,306	9451,2
459,507	9393,12
459,708	9793,3
459,91	9538,93
460,111	9669,52
460,312	10213,51
460,514	9712,38
460,715	10066,89
460,916	10364,52
461,117	9903,06
461,319	10053,67
461,52	10239,54
461,721	10216,71
461,922	10180,26
462,124	10096,14
462,325	10656,55
462,526	10476,29
462,727	10248,36
462,928	10751,89
463,129	10358,92
463,331	11002,65
463,532	10661,35
463,733	10884,88
463,934	10809,97
464,135	11584,69
464,336	10661,76
464,537	11850,28
464,738	11325,52
464,939	11170,09
465,14	11391,21
465,341	12250,06
465,542	11904,36
465,743	11964,84
465,944	11565,06
466,145	12375,04
466,346	12557,3
466,547	12229,23
466,748	11879,12
466,949	12770,81
467,15	12550,09
467,351	12383,05
467,552	13040,4
467,753	12702,31
467,953	12911,82
468,154	12862,15
468,355	12546,89
468,556	13005,95
468,757	13573,98
468,958	13547,14
469,158	13452,2
469,359	13563,96
469,56	13694,95
469,761	13607,23
469,962	14611,88
470,162	14420,8
470,363	14480,89
470,564	14832,6
470,764	14320,26
470,965	14558,6
471,166	14313,85
471,366	15225,97
471,567	14876,67
471,768	15360,17
471,968	15351,35
472,169	15211,95
472,37	14979,61
472,57	15544,83
472,771	15835,66
472,971	16167,74
473,172	15977,46
473,373	16200,18
473,573	15877,72
473,774	16289,51
473,974	17034,99
474,175	17669,91
474,375	17018,57
474,576	16994,54
474,776	17202,04
474,977	17719,19
475,177	17502,47
475,377	17281,75
475,578	17281,35
475,778	18039,25
475,979	17367,88
476,179	18359,31
476,379	18545,98
476,58	18295,22
476,78	18121,37
476,981	18495,51
477,181	18537,97
477,381	18499,12
477,582	18593,65
477,782	19507,38
477,982	19127,23
478,182	19496,16
478,383	19450,9
478,583	20032,54
478,783	19956,43
478,983	20589,75
479,184	19967,24
479,384	20651,04
479,584	20242,44
479,784	20726,75
479,984	20731,55
480,184	20928,24
480,385	21139,74
480,585	22161,23
480,785	21390,91
480,985	21877,61
481,185	21696,15
481,385	22198,48
481,585	21616,84
481,785	22816,17
481,985	22585,44
482,185	23172,29
482,385	22373,53
482,585	22861,44
482,785	23175,5
482,985	23126,62
483,185	23085,36
483,385	23485,95
483,585	23579,28
483,785	23755,94
483,985	23385,8
484,185	24121,67
484,385	24047,56
484,585	24348,8
484,785	24104,44
484,985	24987,32
485,185	24747,77
485,384	25040,6
485,584	25109,9
485,784	25174,79
485,984	25106,69
486,184	25585,79
486,383	25554,54
486,583	25646,68
486,783	25499,66
486,983	25831,75
487,183	25766,05
487,382	26133,38
487,582	26184,26
487,782	26387,35
487,981	26290,41
488,181	26627,3
488,381	26602,86
488,58	26931,74
488,78	26777,52
488,98	27160,07
489,179	27163,68
489,379	27489,75
489,579	27243,79
489,778	28032,54
489,978	27801,4
490,177	27766,15
490,377	28118,26
490,576	27895,94
490,776	28044,95
490,975	28393,86
491,175	28260,87
491,374	28520,04
491,574	28541,27
491,773	28287,31
491,973	28478,38
492,172	29146,95
492,372	28731,55
492,571	29158,97
492,771	29082,06
492,97	29549,94
493,169	29127,32
493,369	30100,73
493,568	29465,41
493,767	29946,91
493,967	29837,55
494,166	30219,71
494,365	29791,89
494,565	29939,7
494,764	30084,31
494,963	30395,56
495,163	30619,49
495,362	30565,01
495,561	30421,6
495,76	31422,25
495,959	30298,22
496,159	30747,67
496,358	30792,94
496,557	31327,71
496,756	31098,18
496,955	31262,02
497,155	31298,87
497,354	31381,39
497,553	30937,55
497,752	31691,84
497,951	31754,73
498,15	31879,71
498,349	30985,62
498,548	31787,58
498,747	31720,28
498,946	31943,41
499,145	31710,27
499,344	32125,27
499,543	31951,02
499,742	32192,17
499,941	31809,61
500,14	32185,76
500,339	31963,43
500,538	32473,37
500,737	32184,55
500,936	32493
501,135	32605,97
501,334	33150,76
501,533	32746,57
501,732	33147,15
501,931	32834,7
502,129	33077,05
502,328	33331,02
502,527	33314,19
502,726	32684,48
502,925	33394,71
503,123	33600,21
503,322	33849,77
503,521	33310,19
503,72	33410,33
503,919	33623,04
504,117	33876,21
504,316	33771,66
504,515	34067,28
504,713	34609,67
504,912	34459,85
505,111	34215,5
505,309	34775,91
505,508	34497,91
505,707	34891,28
505,905	34452,24
506,104	35177,69
506,302	35033,89
506,501	35442,88
506,7	34898,49
506,898	35540,62
507,097	35267,42
507,295	35542,22
507,494	35114,8
507,692	35691,64
507,891	35719,28
508,089	36256,06
508,288	35948,41
508,486	36254,45
508,685	35679,22
508,883	36412,68
509,082	36337,37
509,28	36823,68
509,478	36496
509,677	37086,86
509,875	37360,06
510,073	37633,25
510,272	37281,14
510,47	37909,65
510,669	37394,91
510,867	38143,99
511,065	37543,92
511,263	38346,69
511,462	38268,97
511,66	38549,38
511,858	38686,38
512,056	39060,92
512,255	38749,27
512,453	39185,9
512,651	38889,88
512,849	39380,99
513,048	38915,91
513,246	39668,2
513,444	39864,89
513,642	39815,22
513,84	39825,23
514,038	40430,11
514,236	40182,55
514,435	40608,37
514,633	40255,86
514,831	40964,08
515,029	40943,65
515,227	41305,38
515,425	40931,63
515,623	41370,67
515,821	41520,89
516,019	41739,61
516,217	41677,52
516,415	42196,67
516,613	41742,81
516,811	42243,54
517,009	42247,94
517,207	42754,28
517,405	42729,04
517,602	43251,4
517,8	42530,35
517,998	43006,64
518,196	43500,96
518,394	43466,91
518,592	43280,24
518,79	44087,81
518,987	43425,25
519,185	44157,11
519,383	43869,89
519,581	44077,8
519,779	43594,7
519,976	44749,57
520,174	44364,61
520,372	44747,57
520,57	44137,48
520,767	44813,66
520,965	44186,35
521,163	44614,97
521,36	44564,1
521,558	44657,44
521,756	44250,45
521,953	45021,16
522,151	44505,22
522,349	44834,49
522,546	44762,79
522,744	45096,07
522,941	44506,42
523,139	45170,58
523,336	45332,41
523,534	45777,46
523,731	45132,12
523,929	45566,75
524,126	45475,82
524,324	45222,66
524,521	45377,68
524,719	45530,3
524,916	44999,93
525,114	45060,02
525,311	44930,23
525,509	45451,39
525,706	44810,46
525,903	45256,3
526,101	45404,92
526,298	45453,79
526,496	45058,82
526,693	45919,26
526,89	45086,06
527,088	45741,41
527,285	45233,47
527,482	45571,96
527,679	45137,73
527,877	45569,16
528,074	44898,99
528,271	45763,84
528,468	45611,22
528,666	46043,04
528,863	45408,93
529,06	46126,77
529,257	45305,58
529,454	45679,72
529,652	45468,61
529,849	46071,89
530,046	45525,89
530,243	45999,78
530,44	45604,01
530,637	45768,65
530,834	45402,92
531,031	45709,36
531,228	45673,31
531,425	46196,87
531,622	45854,77
531,819	46259,76
532,016	45678,12
532,213	45641,26
532,41	46151,6
532,607	46168,03
532,804	46039,84
533,001	46233,72
533,198	46274,58
533,395	46171,63
533,592	45670,9
533,789	46706,41
533,986	46113,55
534,183	46899,09
534,38	46287
534,576	46800,54
534,773	46136,78
534,97	46359,9
535,167	46057,06
535,364	46904,29
535,561	45995,78
535,757	46738,45
535,954	46377,53
536,151	46752,07
536,348	46381,54
536,544	46548,18
536,741	46141,59
536,938	46803,35
537,134	46013,8
537,331	47066,13
537,528	46380,33
537,724	46999,23
537,921	46138,38
538,118	47452,29
538,314	46148
538,511	47075,34
538,707	46391,15
538,904	46893,48
539,101	46327,46
539,297	47054,51
539,494	46392,35
539,69	47062,52
539,887	46774,5
540,083	47217,15
540,28	46998,03
540,476	47138,63
540,673	46440,82
540,869	47602,1
541,066	47021,26
541,262	47546,42
541,458	47307,68
541,655	47475,92
541,851	47540,41
542,048	47730,29
542,244	47652,98
542,44	47751,92
542,637	47090,96
542,833	48255,05
543,029	47722,28
543,226	48091,21
543,422	47733,09
543,618	47890,92
543,814	47646,97
544,011	47892,12
544,207	47156,66
544,403	47927,78
544,599	47938,19
544,796	48322,75
544,992	47995,07
545,188	48226,61
545,384	48180,14
545,58	48268,67
545,776	48237,02
545,972	48490,99
546,169	48033,93
546,365	48578,72
546,561	48326,75
546,757	48732,14
546,953	48577,12
547,149	48734,95
547,345	48224,61
547,541	48842,3
547,737	48052,36
547,933	48424,5
548,129	48092,01
548,325	49165,57
548,521	48340,37
548,717	49446,78
548,913	48118,45
549,109	49077,84
549,305	48415,68
549,501	48918,81
549,697	48553,48
549,892	49040,99
550,088	48399,66
550,284	49021,76
550,48	48829,48
550,676	49635,85
550,872	48478,98
551,067	49444,37
551,263	48719,32
551,459	49528,9
551,655	49113,09
551,85	49372,67
552,046	49397,11
552,242	49285,34
552,438	48894,78
552,633	49304,57
552,829	49075,04
553,025	49850,56
553,22	49321
553,416	49418,74
553,612	48979,3
553,807	49937,09
554,003	50055,66
554,198	49788,07
554,394	49476,42
554,59	50330,86
554,785	49047
554,981	50508,72
555,176	49756,83
555,372	50151
555,567	50259,96
555,763	50515,13
555,958	49935,89
556,154	50213,89
556,349	50458,65
556,545	50414,98
556,74	50022,01
556,936	50468,66
557,131	49998,38
557,326	50013,6
557,522	50400,56
557,717	50677,36
557,912	50115,75
558,108	50626,09
558,303	50306,83
558,498	51187,3
558,694	50486,69
558,889	50664,94
559,084	50915,71
559,28	51083,55
559,475	50789,52
559,67	51311,48
559,865	50977,8
560,061	51131,22
560,256	51120
560,451	51189,3
560,646	50762,29
560,841	51800,19
561,037	51237,37
561,232	51503,76
561,427	51313,48
561,622	51835,04
561,817	51289,45
562,012	51754,12
562,207	51843,45
562,402	52084,2
562,597	51331,91
562,792	51714,87
562,987	51714,87
563,182	51587,48
563,377	51602,3
563,572	52737,15
563,767	51732,09
563,962	52044,54
564,157	51760,93
564,352	51999,28
564,547	51871,49
564,742	52294,11
564,937	52036,53
565,132	52439,92
565,327	52191,56
565,522	52500
565,716	52133,47
565,911	53017,96
566,106	52314,94
566,301	52960,27
566,496	52160,71
566,691	53186,2
566,885	52522,04
567,08	53017,15
567,275	52300,92
567,47	53086,05
567,664	52196,36
567,859	53003,13
568,054	52712,31
568,248	53263,91
568,443	53205,03
568,638	53684,12
568,832	52822,47
569,027	53364,46
569,222	52984,31
569,416	53337,22
569,611	53295,56
569,805	53649,67
570	53733,39
570,195	53349,24
570,389	53596,79
570,584	53499,45
570,778	53107,28
570,973	54439,22
571,167	53194,21
571,362	54148,79
571,556	53539,51
571,751	54277,38
571,945	53420,54
572,139	54061,07
572,334	53803,89
572,528	54200,47
572,723	53597,19
572,917	54556,99
573,111	54123,56
573,306	54291,4
573,5	54409,17
573,694	54299,41
573,889	53935,69
574,083	54964,38
574,277	54159,21
574,472	54394,75
574,666	54333,46
574,86	55007,64
575,054	54767,69
575,249	55493,94
575,443	54756,88
575,637	55006,84
575,831	54795,33
576,025	55176,28
576,219	54317,04
576,414	55404,21
576,608	54765,29
576,802	55356,55
576,996	54868,24
577,19	55242,38
577,384	55142,64
577,578	54967,58
577,772	54306,62
577,966	55727,08
578,16	54708,81
578,354	55544,02
578,548	55054,51
578,742	55447,88
578,936	55102,98
579,13	55712,26
579,324	55335,72
579,518	55806,4
579,712	54936,74
579,906	55602,5
580,1	55090,96
580,294	56183,34
580,488	54982,4
580,682	56025,51
580,875	55364,16
581,069	55879,3
581,263	55816,81
581,457	56147,69
581,651	55622,93
581,845	56003,08
582,038	55288,45
582,232	56360,8
582,426	55108,19
582,62	56405,27
582,813	55676,61
583,007	56262,26
583,201	55248,79
583,394	56280,68
583,588	56039,94
583,782	56437,71
583,975	56198,17
584,169	57258,9
584,363	56631,19
584,556	56709,71
584,75	56384,44
584,943	56582,72
585,137	56465,35
585,33	56588,33
585,524	56223
585,718	57166,37
585,911	56279,48
586,105	56807,45
586,298	56259,85
586,491	57188
586,685	56849,51
586,878	57247,69
587,072	56526,24
587,265	57014,95
587,459	56264,26
587,652	57560,54
587,845	56432,5
588,039	57558,54
588,232	57219,25
588,426	57552,13
588,619	56927,62
588,812	56939,64
589,005	56633,6
589,199	57376,27
589,392	56904,39
589,585	57359,45
589,779	56852,31
589,972	57418,73
590,165	56942,44
590,358	57627,44
590,551	57105,48
590,745	57356,64
590,938	57146,34
591,131	57751,22
591,324	55479,12
591,517	57901,83
591,71	57280,53
591,904	57951,51
592,097	57180,39
592,29	57831,33
592,483	57125,91
592,676	57710,76
592,869	56870,34
593,062	57565,35
593,255	56833,49
593,448	57489,64
593,641	57131,12
593,834	57722,37
594,027	57110,69
594,22	57850,96
594,413	57202,02
594,606	57789,67
594,799	57095,87
594,992	57868,99
595,184	57058,21
595,377	57721,17
595,57	57554,13
595,763	58111,34
595,956	57285,74
596,149	57989,56
596,341	57956,71
596,534	58032,42
596,727	57693,13
596,92	57918,26
597,113	57662,69
597,305	57869,79
597,498	57537,71
597,691	57875
597,883	57707,15
598,076	57867,38
598,269	57791,27
598,462	58150,6
598,654	57854,57
598,847	57971,54
599,039	57873,39
599,232	58155
599,425	57740,8
599,617	57649,07
599,81	57835,74
600,002	57965,13
600,195	57004,93
600,387	58241,53
600,58	57640,66
600,772	57957,52
600,965	57592,99
601,157	58074,49
601,35	57850,96
601,542	58062,87
601,735	57618,22
601,927	58417,78
602,12	57609,41
602,312	58310,03
602,504	57564,95
602,697	57781,66
602,889	57860,98
603,082	57997,57
603,274	57900,63
603,466	58407,77
603,659	57617,82
603,851	58205,07
604,043	57722,37
604,235	58469,86
604,428	57160,36
604,62	58417,38
604,812	57979,95
605,004	58583,22
605,197	57774,45
605,389	58547,17
605,581	57659,88
605,773	58344,88
605,965	57767,24
606,157	58326,05
606,349	57582,17
606,542	58104,13
606,734	57590,98
606,926	58243,53
607,118	57546,52
607,31	58047,25
607,502	57335,41
607,694	58595,24
607,886	57327,4
608,078	58474,26
608,27	57595,39
608,462	58153,8
608,654	57582,57
608,846	58342,47
609,038	57605
609,23	58319,64
609,422	58031,22
609,614	58111,74
609,805	58093,31
609,997	58211,88
610,189	58264,36
610,381	58803,54
610,573	57929,47
610,765	58834,79
610,957	58133,77
611,148	58416,58
611,34	57895,83
611,532	59266,21
611,724	58696,19
611,915	59222,95
612,107	58800,34
612,299	59739,3
612,491	58894,07
612,682	59527,79
612,874	58812,76
613,066	59604,7
613,257	58714,61
613,449	59920,36
613,64	59312,68
613,832	59575,06
614,024	59629,14
614,215	59786,17
614,407	59919,96
614,598	60194,76
614,79	60123,05
614,981	60543,26
615,173	60539,66
615,364	61099,67
615,556	60624,98
615,747	61687,72
615,939	60596,94
616,13	61589,18
616,322	61076,44
616,513	61579,97
616,705	60966,28
616,896	62006,18
617,087	61257,5
617,279	62184,84
617,47	61409,72
617,661	62586,23
617,853	61899,23
618,044	62608,66
618,235	62257,75
618,427	62778,5
618,618	62468,45
618,809	63047,29
619	62588,63
619,192	63225,55
619,383	62700,39
619,574	63372,97
619,765	62900,68
619,957	63658,18
620,148	63065,32
620,339	63943,79
620,53	63118,6
620,721	64021,91
620,912	63326,9
621,103	64253,84
621,294	63536
621,485	64408,07
621,677	63692,63
621,868	64434,1
622,059	63580,87
622,25	64400,05
622,441	63493,54
622,632	64206,17
622,823	63516,77
623,014	63961,02
623,205	63581,27
623,395	63629,34
623,586	63467,1
623,777	63751,11
623,968	63226,35
624,159	63741,1
624,35	63276,83
624,541	63724,28
624,732	63312,48
624,923	63774,75
625,113	63378,57
625,304	63590,88
625,495	63285,64
625,686	63495,14
625,877	63184,69
626,067	63374,17
626,258	63141,83
626,449	63399
626,639	63001,23
626,83	63411,42
627,021	62724,43
627,211	63175,88
627,402	62589,83
627,593	62831,78
627,783	62489,69
627,974	62783,31
628,165	62321,04
628,355	62488,88
628,546	62090,71
628,736	62508,51
628,927	61817,11
629,117	62555,38
629,308	61892,02
629,498	62424,39
629,689	61740,2
629,879	62351,08
630,07	61882,41
630,26	61992,16
630,451	61789,07
630,641	62104,33
630,832	61499,45
631,022	61894,42
631,212	61128,91
631,403	61684,92
631,593	60802,04
631,784	61551,53
631,974	60734,34
632,164	61620,02
632,355	60655,43
632,545	61468,2
632,735	60854,92
632,925	60916,61
633,116	60637,8
633,306	60471,16
633,496	60286,49
633,686	60939,04
633,876	60314,53
634,067	60613,77
634,257	60367,01
634,447	60845,3
634,637	60638,2
634,827	60636,6
635,017	60135,07
635,208	60958,27
635,398	60347,78
635,588	60976,29
635,778	60137,48
635,968	61292,35
636,158	60258,05
636,348	61084,05
636,538	60367,81
636,728	61060,41
636,918	60178,74
637,108	60948,25
637,298	60131,47
637,488	60823,27
637,678	60258,05
637,868	60389,44
638,057	60179,14
638,247	60482,78
638,437	60036,93
638,627	60796,83
638,817	59751,72
639,007	60882,16
639,197	59731,29
639,386	60450,73
639,576	59468,51
639,766	60310,13
639,956	59578,27
640,145	60292,1
640,335	59534,6
640,525	60464,75
640,715	59726,08
640,904	60325,35
641,094	59273,02
641,284	60177,13
641,473	59744,91
641,663	59809,4
641,853	59623,53
642,042	59986,86
642,232	59006,64
642,421	59812,2
642,611	59436,46
642,801	59875,1
642,99	59583,07
643,18	60200,77
643,369	59613,92
643,559	60011,69
643,748	59727,68
643,938	59800,59
644,127	59284,24
644,317	59793,78
644,506	59212,53
644,695	59601,5
644,885	59687,62
645,074	59491,74
645,264	59131,62
645,453	59349,53
645,642	59440,87
645,832	59626,74
646,021	59097,97
646,21	59859,47
646,4	59036,28
646,589	59731,69
646,778	58856,82
646,967	59485,33
647,157	58606,86
647,346	59456,89
647,535	58747,46
647,724	59221,75
647,913	59215,74
648,103	59522,98
648,292	58980,2
648,481	59649,17
648,67	59409,22
648,859	59503,36
649,048	59420,04
649,237	59359,95
649,427	58952,96
649,616	59512,17
649,805	58402,96
649,994	59313,88
650,183	58699,79
650,372	59461,7
650,561	58276,78
650,75	59138,03
650,939	58168,22
651,128	58985,81
651,317	58589,63
651,506	59124,81
651,694	58371,72
651,883	59197,31
652,072	58577,61
652,261	59154,05
652,45	58209,08
652,639	59376,37
652,828	58714,61
653,016	59324,3
653,205	58370,51
653,394	59138,83
653,583	58539,16
653,772	59544,22
653,96	58708,6
654,149	59254,2
654,338	58294,4
654,527	59209,73
654,715	58519,53
654,904	59515,37
655,093	58606,06
655,281	59005,03
655,47	58386,54
655,658	58767,49
655,847	58473,46
656,036	58676,16
656,224	57861,38
656,413	58745,06
656,601	57905,04
656,79	58730,24
656,978	57642,26
657,167	58763,08
657,355	57856,17
657,544	59032,67
657,732	57972,34
657,921	58618,47
658,109	58123,36
658,298	58779,91
658,486	57733,59
658,675	58507,51
658,863	58209,08
659,051	58289,2
659,24	57474,01
659,428	58449,83
659,616	57570,55
659,805	58322,44
659,993	57318,59
660,181	58613,27
660,37	57526,49
660,558	57939,89
660,746	57574,96
660,934	58083,7
661,123	57280,13
661,311	58483,48
661,499	57486,03
661,687	58146,19
661,875	57276,13
662,064	57806,5
662,252	57097,87
662,44	57301,36
662,628	57440,77
662,816	57577,36
663,004	57465,2
663,192	57390,69
663,38	57414,33
663,568	57341,02
663,756	57521,68
663,944	57597,39
664,132	57118,3
664,32	57570,55
664,508	56827,48
664,696	57538,91
664,884	56607,16
665,072	57164,77
665,26	55900,53
665,448	57536,91
665,636	56605,56
665,824	57338,62
666,012	56665,24
666,199	57212,03
666,387	56299,51
666,575	56615,57
666,763	56604,35
666,951	57062,62
667,139	56573,51
667,326	57042,59
667,514	56010,29
667,702	56864,73
667,889	56435,31
668,077	56546,67
668,265	56309,93
668,453	56836,29
668,64	56609,56
668,828	56730,54
669,016	55651,77
669,203	56621,18
669,391	55820,02
669,578	56755,37
669,766	55771,95
669,954	56462,95
670,141	56035,53
670,329	56003,88
670,516	55934,98
670,704	56031,12
670,891	55493,54
671,079	56313,53
671,266	55553,63
671,454	56207,38
671,641	55447,08
671,828	55877,3
672,016	55542,01
672,203	55751,52
672,391	55157,06
672,578	56227,81
672,765	54896,28
672,953	56019,11
673,14	55497,95
673,327	55705,45
673,515	55462,7
673,702	55647,77
673,889	54796,13
674,077	55689,03
674,264	54945,95
674,451	55377,38
674,638	54853,82
674,825	55723,08
675,013	54452,84
675,2	55190,7
675,387	54456,04
675,574	54746,06
675,761	54496,9
675,948	54599,45
676,136	54641,11
676,323	55100,17
676,51	53948,1
676,697	55363,76
676,884	54546,17
677,071	54645,11
677,258	54166,42
677,445	54590,23
677,632	54024,21
677,819	54286,19
678,006	53984,56
678,193	54508,12
678,38	54042,64
678,567	54176,03
678,754	54422,39
678,94	54371,12
679,127	54365,11
679,314	54514,12
679,501	54080,7
679,688	54617,87
679,875	53449,38
680,062	54639,91
680,248	53701,35
680,435	54146,39
680,622	53907,24
680,809	54803,34
680,995	53304,77
681,182	54230,51
681,369	53559,54
681,556	54353,89
681,742	53535,1
681,929	53961,72
682,116	53789,47
682,302	54196,86
682,489	53490,24
682,675	53704,15
682,862	53456,99
683,049	53673,31
683,235	53570,36
683,422	53737
683,608	52827,68
683,795	53657,68
683,981	52864,13
684,168	53636,85
684,354	52931,03
684,541	54030,62
684,727	53334,81
684,914	53477,02
685,1	52571,71
685,287	52796,43
685,473	52523,24
685,659	53115,7
685,846	52357,4
686,032	53140,93
686,218	52264,86
686,405	53017,96
686,591	52763,19
686,777	53144,54
686,964	52315,74
687,15	52768,79
687,336	52310,13
687,522	52606,16
687,709	52370,22
687,895	53173,78
688,081	52288,1
688,267	52826,08
688,454	52243,63
688,64	52412,68
688,826	51980,45
689,012	52589,33
689,198	52074,19
689,384	52545,67
689,57	51800,19
689,756	52217,19
689,942	51804,6
690,128	52425,1
690,314	51291,45
690,501	52520,43
690,687	52407,47
690,873	52179,94
691,058	51569,86
691,244	52451,13
691,43	51447,28
691,616	52641,81
691,802	51968,43
691,988	52280,89
692,174	51864,28
692,36	52154,3
692,546	51395,6
692,732	52085,4
692,917	51495,75
693,103	52298,51
693,289	51740,5
693,475	52318,94
693,661	51064,32
693,846	52664,64
694,032	51110,79
694,218	51904,74
694,404	51506,96
694,589	51817,82
694,775	51583,08
694,961	51932,78
695,146	51230,56
695,332	51929,58
695,518	51364,76
695,703	51912,75
695,889	51156,46
696,074	51699,64
696,26	51024,27
696,446	51665,59
696,631	50928,53
696,817	51708,46
697,002	51053,51
697,188	51217,75
697,373	50568,8
697,559	51269,42
697,744	50668,15
697,93	51422,44
698,115	50773,5
698,3	51375,97
698,486	50296,81
698,671	51194,11
698,857	50322,85
699,042	50916,51
699,227	50270,77
699,413	51026,67
699,598	50465,86
699,783	51234,17
699,969	50293,61
700,154	50737,85
700,339	50007,99
700,524	50860,83
700,71	49860,58
700,895	50606,86
701,08	50167,82
701,265	51017,05
701,45	50488,29
701,636	50991,42
701,821	49886,22
702,006	50606,86
702,191	49856,17
702,376	50329,66
702,561	49675,91
702,746	50112,54
702,931	49963,13
703,116	50373,72
703,301	49504,06
703,486	50149,4
703,671	49901,44
703,856	50298,41
704,041	50159,41
704,226	50383,74
704,411	49837,75
704,596	50419,39
704,781	49704,35
704,966	50574,01
705,151	49593,79
705,336	49837,34
705,521	49590,99
705,706	50518,73
705,89	49521,29
706,075	50066,48
706,26	49619,03
706,445	50194,66
706,63	49586,58
706,814	50010,8
706,999	49711,16
707,184	50312,83
707,368	49399,51
707,553	50276,78
707,738	49218,85
707,923	50028,42
708,107	49343,43
708,292	50251,54
708,476	49834,54
708,661	49625,44
708,846	49527,3
709,03	50188,65
709,215	49729,59
709,399	50229,11
709,584	49276,53
709,768	49819,32
709,953	49387,09
710,137	49710,36
710,322	49347,83
710,506	49472,42
710,691	49535,31
710,875	49886,22
711,06	48843,1
711,244	49422,34
711,429	48563,9
711,613	49232,47
711,797	48699,29
711,982	49051,81
712,166	48512,22
712,35	49097,07
712,535	48358
712,719	48833,49
712,903	48315,94
713,088	48923,22
713,272	48178,54
713,456	48831,89
713,64	48485,38
713,824	48223,4
714,009	47750,32
714,193	48429,7
714,377	47073,74
714,561	48030,33
714,745	48178,94
714,929	48222,6
715,113	47928,18
715,298	48269,87
715,482	47800,39
715,666	48232,22
715,85	47655,78
716,034	47977,85
716,218	47019,26
716,402	48119,25
716,586	47462,7
716,77	48268,27
716,954	47493,15
717,138	47751,92
717,322	47026,07
717,506	48117,25
717,689	47247,59
717,873	47937,39
718,057	46776,51
718,241	47369,77
718,425	47106,59
718,609	47342,53
718,793	46951,56
718,976	47208,33
719,16	46897,08
719,344	47356,95
719,528	46730,04
719,711	47200,32
719,895	46550,58
720,079	46887,07
720,263	46054,66
720,446	46971,99
720,63	46174,84
720,814	46819,77
720,997	46331,86
721,181	46631,5
721,364	45700,95
721,548	46553,78
721,732	45978,95
721,915	46415,58
722,099	45843,56
722,282	46640,71
722,466	45574,36
722,649	46432,41
722,833	45800,29
723,016	46045,85
723,2	45825,53
723,383	45964,53
723,567	45785,07
723,75	46115,95
723,934	45721,78
724,117	46264,57
724,3	45793,88
724,484	46103,93
724,667	45402,12
724,85	46301,02
725,034	45539,91
725,217	45585,58
725,4	45177,39
725,584	45753,02
725,767	44723,53
725,95	45566,35
726,133	45309,18
726,317	45522,69
726,5	45049,6
726,683	45359,65
726,866	44863,73
727,049	45547,93
727,232	44857,73
727,416	45406,92
727,599	45093,27
727,782	45463,8
727,965	44760,38
728,148	45479,83
728,331	45146,14
728,514	45285,15
728,697	45191,41
728,88	45537,51
729,063	45170,58
729,246	45476,22
729,429	44909,4
729,612	45271,93
729,795	44713,12
729,978	45295,16
730,161	44500,41
730,344	45054,41
730,526	44531,65
730,709	45249,89
730,892	44504,41
731,075	44586,13
731,258	43866,29
731,441	44637,41
731,623	44301,32
731,806	44132,27
731,989	43698,85
732,172	44210,79
732,354	43766,54
732,537	44208,79
732,72	43868,29
732,903	44385,44
733,085	43656,79
733,268	44374,63
733,451	43546,22
733,633	44725,94
733,816	43428,85
733,998	43935,19
734,181	43553,84
734,364	44145,09
734,546	43833,04
734,729	44047,75
734,911	43741,71
735,094	43821,82
735,276	43557,04
735,459	43778,96
735,641	43604,31
735,824	43661,19
736,006	43438,87
736,188	43977,65
736,371	42833,19
736,553	43565,45
736,736	43049,91
736,918	43811,01
737,1	42977,8
737,283	43651,18
737,465	43598,7
737,647	43515,38
737,83	42958,57
738,012	43234,97
738,194	42665,75
738,376	43206,53
738,559	42866,84
738,741	43394
738,923	42793,93
739,105	43460,5
739,287	42764,69
739,469	43265,82
739,652	42794,33
739,834	42902,49
740,016	42419,39
740,198	43211,74
740,38	42073,69
740,562	42452,64
740,744	42182,65
740,926	42488,69
741,108	41854,97
741,29	42323,65
741,472	42034,43
741,654	42404,17
741,836	42139,39
742,018	42390,95
742,2	41576,57
742,382	41959,52
742,564	41628,65
742,746	41892,23
742,928	41561,35
743,109	42104,94
743,291	41473,22
743,473	41342,63
743,655	41254,9
743,837	41683,93
744,019	40574,72
744,2	41627,04
744,382	41108,69
744,564	41252,1
744,746	40941,65
744,927	41380,69
745,109	40916,41
745,291	41416,34
745,472	40773
745,654	41275,33
745,836	40580,33
746,017	41029,78
746,199	40371,22
746,38	40978,5
746,562	39825,63
746,744	40998,53
746,925	40134,08
747,107	40588,34
747,288	40059,97
747,47	40354
747,651	39792,78
747,833	40394,46
748,014	39759,14
748,195	40105,64
748,377	39682,62
748,558	39966,24
748,74	39351,34
748,921	39815,22
749,102	39524,8
749,284	39916,16
749,465	39406,62
749,646	39868,89
749,828	39209,54
750,009	39762,74
750,19	39153,46
750,372	39889,32
750,553	39021,67
750,734	39364,16
750,915	38597,45
751,096	39766,75
751,278	39062,12
751,459	39347,74
751,64	38697,2
751,821	39180,7
752,002	38736,85
752,183	39187,11
752,364	38890,68
752,546	39299,27
752,727	38452,84
752,908	39010,45
753,089	38421,2
753,27	38868,64
753,451	38871,05
753,632	39120,61
753,813	38767,3
753,994	39321,3
754,175	38516,93
754,356	39403,02
754,536	38657,94
754,717	39605,71
754,898	38907,9
755,079	39603,71
755,26	39185,1
755,441	39934,99
755,622	39291,66
755,802	39788,38
755,983	39548,43
756,164	39856,08
756,345	39401,02
756,526	40108,44
756,706	39639,76
756,887	40097,23
757,068	39881,71
757,248	40829,89
757,429	40019,11
757,61	40823,08
757,79	40566,71
757,971	41071,04
758,152	40745,77
758,332	41268,12
758,513	41011,75
758,693	41185,6
758,874	41418,34
759,055	42279,59
759,235	41299,77
759,416	42422,6
759,596	41662,69
759,777	42647,32
759,957	41891,03
760,137	42686,18
760,318	42648,52
760,498	42959,77
760,679	42338,47
760,859	43198,52
761,039	42997,43
761,22	43659,99
761,4	43049,5
761,581	44064,98
761,761	43361,96
761,941	44109,44
762,121	43630,75
762,302	44404,27
762,482	43871,5
762,662	44422,29
762,842	44106,64
763,023	44908,6
763,203	44535,26
763,383	44986,31
763,563	44671,06
763,743	45020,36
763,923	44686,68
764,104	45544,32
764,284	44670,65
764,464	45520,29
764,644	44751,57
764,824	45750,62
765,004	44914,21
765,184	45926,07
765,364	44985,51
765,544	45671,31
765,724	45187,8
765,904	46287
766,084	45271,53
766,264	45771,85
766,444	45207,83
766,624	45997,38
766,804	45187,8
766,983	45894,43
767,163	45374,88
767,343	45591,99
767,523	45340,03
767,703	45861,18
767,883	44946,25
768,062	45485,84
768,242	44759,18
768,422	45501,46
768,602	44528,45
768,781	45660,89
768,961	44196,37
769,141	45391,7
769,32	44505,22
769,5	44933,04
769,68	44265,67
769,859	44822,88
770,039	43678,02
770,219	44406,67
770,398	43759,33
770,578	44243,64
770,757	43756,13
770,937	43704,45
771,116	42952,56
771,296	43764,54
771,475	42955,37
771,655	43672,81
771,834	42885,27
772,014	43239,78
772,193	42810,36
772,373	43083,55
772,552	42161,02
772,731	42382,54
772,911	42012
773,09	42459,85
773,269	41103,08
773,449	41664,7
773,628	41437,97
773,807	41415,14
773,987	40839,1
774,166	41092,27
774,345	40372,42
774,524	40938,04
774,704	39966,24
774,883	40630,8
775,062	39866,09
775,241	40334,37
775,42	39413,43
775,6	40275,48
775,779	39224,36
775,958	39810,41
776,137	39133,43
776,316	39721,48
776,495	38928,33
776,674	39554,84
776,853	38546,58
777,032	39137,43
777,211	38184,05
777,39	38703,61
777,569	38313,84
777,748	38271,38
777,927	37743,81
778,106	37908,05
778,285	37881,21
778,464	37557,54
778,643	37533,51
778,822	37783,07
779	37207,04
779,179	37268,32
779,358	37027,17
779,537	37144,95
779,716	36425,9
779,894	36740,76
780,073	36426,7
780,252	36203,98
780,431	35673,21
780,609	36610,17
780,788	35968,44
780,967	35823,43
781,145	35211,34
781,324	35961,23
781,503	35009,85
781,681	35281,04
781,86	34625,69
782,039	34823,98
782,217	34300,02
782,396	34704,21
782,574	34103,74
782,753	34559,2
782,931	33993,58
783,11	34445,03
783,288	33546,13
783,467	33963,53
783,645	33238,08
783,824	33836,15
784,002	32833,1
784,18	33344,24
784,359	33282,15
784,537	33547,73
784,716	32974,5
784,894	33374,28
785,072	32826,29
785,251	33170,38
785,429	32557,5
785,607	33127,92
785,785	32750,98
785,964	32872,75
786,142	32315,14
786,32	32624,39
786,498	32297,52
786,677	32382,84
786,855	32176,54
787,033	32494,6
787,211	31755,53
787,389	32386,85
787,567	31378,99
787,745	31804,8
787,923	31413,84
788,102	31626,15
788,28	31079,75
788,458	31476,33
788,636	31150,26
788,814	31369,77
788,992	30966,39
789,17	31114,2
789,348	30945,96
789,526	31059,72
789,703	30273,38
789,881	31126,22
790,059	30416,79
790,237	30731,25
790,415	29960,53
790,593	30351,1
790,771	30029,43
790,949	30190,86
791,126	30043,85
791,304	30192,87
791,482	29713,37
791,66	30101,13
791,837	29507,87
792,015	29929,29
792,193	29104,49
792,371	29843,56
792,548	29204,64
792,726	29577,18
792,904	28908,61
793,081	29391,71
793,259	28859,74
793,436	29211,04
793,614	28634,21
793,792	29081,66
793,969	28642,62
794,147	28968,29
794,324	28745,97
794,502	28715,13
794,679	28320,55
794,857	28534,86
795,034	28352,2
795,212	28348,59
795,389	28190,77
795,567	28405,88
795,744	27970,85
795,921	28069,79
796,099	27383,6
796,276	27645,98
796,453	27238,59
796,631	27774,16
796,808	27571,87
796,985	27637,16
797,163	27214,55
797,34	27347,14
797,517	26997,04
797,694	27284,25
797,872	26812,77
798,049	27264,22
798,226	26926,93
798,403	26677,77
798,58	26568,81
798,757	27021,87
798,935	26514,74
799,112	26861,24
799,289	26465,46
799,466	26661,75
799,643	26227,52
799,82	26593,65
799,997	26092,52
800,174	26547,58
800,351	25585,79
800,528	26157,02
800,705	25846,97
800,882	25759,24
801,059	25449,19
801,236	25858,18
801,413	25517,69
801,589	25993,58
801,766	25429,96
801,943	25759,24
802,12	25550,94
802,297	25638,27
802,474	25055,82
802,651	25153,96
802,827	25079,86
803,004	25169,19
803,181	24933,24
803,358	25434,77
803,534	24565,91
803,711	25079,05
803,888	24738,16
804,064	24988,92
804,241	24819,48
804,418	24965,29
804,594	24743,77
804,771	24721,34
804,947	24404,48
805,124	24802,25
805,301	24282,3
805,477	24454,95
805,654	23909,76
805,83	24272,69
806,007	23953,42
806,183	24217,01
806,36	24272,69
806,536	24310,34
806,712	23900,55
806,889	23969,05
807,065	23789,18
807,242	23900,95
807,418	23532,41
807,594	23704,26
807,771	23348,95
807,947	23610,93
808,123	23076,95
808,3	23435,47
808,476	22861,44
808,652	23448,29
808,829	22875,06
809,005	23153,06
809,181	22610,28
809,357	22953,97
809,533	22659,15
809,71	22886,68
809,886	22591,05
810,062	22942,76
810,238	22387,95
810,414	22946,76
810,59	22325,46
810,766	22657,54
810,942	22103,54
811,118	22538,97
811,294	22045,46
811,47	22415,99
811,646	22260,97
811,822	22349,9
811,998	22043,45
812,174	22242,14
812,35	22077,1
812,526	22073,1
812,702	21803,51
812,878	22059,88
813,054	21601,21
813,23	21655,69
813,405	21502,67
813,581	21597,21
813,757	21598,81
813,933	21564,76
814,109	20913,02
814,284	21453,4
814,46	21103,69
814,636	21100,49
814,812	20937,05
814,987	21015,16
815,163	20867,75
815,339	21092,48
815,514	20546,88
815,69	20870,15
815,866	20637,82
816,041	20811,27
816,217	20609,38
816,392	20856,53
816,568	20359,81
816,743	20765,2
816,919	20344,59
817,094	21058,03
817,27	20570,52
817,445	20810,47
817,621	20372,63
817,796	20746,37
817,972	20294,52
818,147	20602,17
818,322	20176,35
818,498	20314,55
818,673	20148,31
818,849	20474,38
819,024	20064,19
819,199	20301,73
819,375	20074,6
819,55	20275,69
819,725	19836,25
819,9	20064,99
820,076	19780,17
820,251	19930,39
820,426	19620,74
820,601	20055,77
820,776	19451,3
820,952	19744,92
821,127	19299,88
821,302	19456,5
821,477	19420,45
821,652	19410,04
821,827	19060,73
822,002	19204,94
822,177	19055,92
822,352	19336,33
822,527	18989,43
822,702	19177,7
822,877	18847,62
823,052	18985,82
823,227	18771,91
823,402	18981,82
823,577	18686,19
823,752	18938,95
823,927	18654,54
824,102	18886,08
824,277	18651,34
824,451	18927,34
824,626	18450,25
824,801	18733,86
824,976	18470,68
825,151	18727,85
825,325	18529,96
825,5	18570,82
825,675	18240,74
825,85	18398,17
826,024	18154,22
826,199	18265,98
826,374	17836,56
826,548	18200,28
826,723	17939,1
826,897	18200,28
827,072	17773,26
827,247	17989,18
827,421	17675,12
827,596	18004,4
827,77	17683,93
827,945	17662,7
828,119	17669,51
828,294	17753,64
828,468	17649,48
828,643	17545,33
828,817	17521,3
828,992	17549,34
829,166	17063,44
829,34	17580,18
829,515	17098,69
829,689	17280,15
829,864	17116,71
830,038	17257,32
830,212	17088,27
830,386	16962,09
830,561	16793,84
830,735	16942,86
830,909	16656,04
831,084	16630,41
831,258	16383,65
831,432	16699,31
831,606	16248,25
831,78	16452,95
831,954	16384,05
832,129	16412,09
832,303	16051,57
832,477	16217,01
832,651	15871,31
832,825	16149,71
832,999	16073,2
833,173	16036,75
833,347	15854,48
833,521	16066,39
833,695	15806,81
833,869	16230,63
834,043	15635,77
834,217	16100,84
834,391	15675,02
834,565	15786,38
834,739	15787,19
834,913	15934,6
835,086	15743,92
835,26	15854,48
835,434	15566,47
835,608	15651,39
835,782	15581,29
835,956	15537,22
836,129	15388,61
836,303	15503,57
836,477	15326,92
836,651	15386,2
836,824	15310,89
836,998	15363,77
837,172	14967,2
837,345	15430,27
837,519	14972
837,693	15113,41
837,866	14956,38
838,04	14962,39
838,213	14822,19
838,387	14952,78
838,56	14782,93
838,734	14825,79
838,907	14700,01
839,081	14798,15
839,254	14651,54
839,428	14774,12
839,601	14657,95
839,775	14626,7
839,948	14552,19
840,122	14692,4
840,295	14451,65
840,468	14545,39
840,642	14488,5
840,815	14425,21
840,988	14215,31
841,162	14227,32
841,335	14246,55
841,508	14267,78
841,682	14135,59
841,855	14282,6
842,028	14208,5
842,201	14159,63
842,374	13989,38
842,548	14026,23
842,721	13935,7
842,894	14053,87
843,067	13753,44
843,24	13825,94
843,413	13451,4
843,586	13671,72
843,759	13573,98
843,932	13612,43
844,105	13521,9
844,278	13481,44
844,451	13472,63
844,624	13502,27
844,797	13308,39
844,97	13447,79
845,143	13140,15
845,316	13537,92
845,489	13183,81
845,662	13049,22
845,835	13154,57
846,008	13282,35
846,18	12969,1
846,353	13170,99
846,526	12967,9
846,699	12971,1
846,872	12923,83
847,044	13055,22
847,217	12779,63
847,39	12990,73
847,563	12561,31
847,735	12743,17
847,908	12577,73
848,081	12652,24
848,253	12490,01
848,426	12480,39
848,598	12403,48
848,771	12622,6
848,944	12106,25
849,116	12376,24
849,289	12268,08
849,461	12421,11
849,634	12091,83
849,806	12280,5
849,979	12066,19
850,151	12319,36
850,324	12220,01
850,496	12207,6
850,668	11980,07
850,841	12070,6
851,013	11919,98
851,186	11996,49
851,358	11890,74
851,53	11980,47
851,703	11725,3
851,875	11805,01
852,047	11639,97
852,219	11716,48
852,392	11662,81
852,564	11618,74
852,736	11417,65
852,908	11483,75
853,081	11485,35
853,253	11371,58
853,425	11302,68
853,597	11451,3
853,769	11148,06
853,941	11285,46
854,113	11088,37
854,285	11300,68
854,457	11077,56
854,63	11062,74
854,802	11062,34
854,974	11121,22
855,146	11014,67
855,318	11160,88
855,489	10942,56
855,661	11057,53
855,833	10833,2
856,005	11023,48
856,177	10742,27
856,349	10820,39
856,521	10706,22
856,693	10779,13
856,865	10529,96
857,036	10861,24
857,208	10641,73
857,38	10696,61
857,552	10439,03
857,723	10736,66
857,895	10382,95
858,067	10446,64
858,239	10284,81
858,41	10271,99
858,582	10312,05
858,754	10285,21
858,925	9989,58
859,097	10213,1
859,268	10086,12
859,44	10037,25
859,612	10018,02
859,783	10106,55
859,955	9771,26
860,126	10072,5
860,298	9798,9
860,469	9994,39
860,641	9730,41
860,812	9842,57
860,983	9720,39
861,155	9770,46
861,326	9700,36
861,498	9671,12
861,669	9522,5
861,84	9556,15
862,012	9472,03
862,183	9557,35
862,354	9514,49
862,526	9479,24
862,697	9428,37
862,868	9334,23
863,039	9331,43
863,211	9226,47
863,382	9178,41
863,553	9303,39
863,724	9090,28
863,895	9149,16
864,066	8964,49
864,238	9082,67
864,409	8972,11
864,58	8983,32
864,751	9026,59
864,922	8946,47
865,093	8855,14
865,264	8961,69
865,435	8639,62
865,606	8885,98
865,777	8761,4
865,948	8851,13
866,119	8627,61
866,29	8695,3
866,461	8535,87
866,632	8501,02
866,802	8498,62
866,973	8597,56
867,144	8351,21
867,315	8569,92
867,486	8368,43
867,657	8449,35
867,827	8385,26
867,998	8430,52
868,169	8134,09
868,34	8366,83
868,51	8186,57
868,681	8266,68
868,852	8119,27
869,022	8197,38
869,193	8098,44
869,364	8090,03
869,534	7827,25
869,705	8045,16
869,875	7854,89
870,046	7863,3
870,217	7842,47
870,387	7915,77
870,558	7853,68
870,728	7918,98
870,899	7644,98
871,069	7834,46
871,239	7683,84
871,41	7724,7
871,58	7566,07
871,751	7668,62
871,921	7494,36
872,091	7556,45
872,262	7530,82
872,432	7662,61
872,602	7347,75
872,773	7505,58
872,943	7231,18
873,113	7364,18
873,284	7263,23
873,454	7337,74
873,624	7244,4
873,794	7252,81
873,964	7128,63
874,135	7141,05
874,305	7111,81
874,475	7174,7
874,645	6949,97
874,815	7136,65
874,985	7035,3
875,155	7016,47
875,325	6868,26
875,495	6875,07
875,665	6909,92
875,835	6880,67
876,005	6739,27
876,175	6866,25
876,345	6732,46
876,515	6723,25
876,685	6684,79
876,855	6780,53
877,025	6532,17
877,195	6608,28
877,365	6545,39
877,534	6647,14
877,704	6538,98
877,874	6635,92
878,044	6409,59
878,214	6627,51
878,383	6463,67
878,553	6406,79
878,723	6392,37
878,892	6397,57
879,062	6319,86
879,232	6322,67
879,401	6189,27
879,571	6301,03
879,741	6058,28
879,91	6258,17
880,08	6076,31
880,249	6044,66
880,419	6079,51
880,589	6069,1
880,758	6129,18
880,928	6059,48
881,097	5918,48
881,267	6075,91
881,436	5953,33
881,605	6070,3
881,775	5812,33
881,944	5949,32
882,114	5897,65
882,283	5932,1
882,452	5767,06
882,622	5829,95
882,791	5675,33
882,96	5780,68
883,13	5700,56
883,299	5743,43
883,468	5599,62
883,637	5649,29
883,807	5571,18
883,976	5733,81
884,145	5498,67
884,314	5689,35
884,483	5532,72
884,652	5499,47
884,822	5384,51
884,991	5409,74
885,16	5459,41
885,329	5541,53
885,498	5341,64
885,667	5451
885,836	5315,61
886,005	5373,29
886,174	5386,11
886,343	5276,75
886,512	5263,93
886,681	5367,68
886,85	5215,86
887,019	5229,48
887,187	5189,02
887,356	5282,36
887,525	5147,76
887,694	5146,96
887,863	5007,16
888,032	5134,54
888,2	5070,05
888,369	5029,59
888,538	5013,17
888,707	4994,34
888,875	4932,25
889,044	4928,64
889,213	4953,48
889,381	5032,39
889,55	4911,02
889,719	4924,64
889,887	4927,44
890,056	4838,91
890,224	4895,8
890,393	4812,88
890,562	4767,61
890,73	4897,8
890,899	4707,52
891,067	4861,75
891,236	4663,46
891,404	4845,72
891,573	4733,96
891,741	4703,92
891,909	4542,08
892,078	4695,51
892,246	4543,69
892,415	4625,41
892,583	4548,49
892,751	4632,62
892,92	4563,32
893,088	4547,29
893,256	4382,65
893,424	4518,45
893,593	4519,65
893,761	4457,96
893,929	4295,73
894,097	4436,73
894,265	4282,11
894,434	4388,26
894,602	4357,02
894,77	4335,38
894,938	4288,92
895,106	4290,52
895,274	4254,47
895,442	4272,49
895,61	4195,58
895,778	4115,07
895,946	4130,69
896,114	4125,08
896,282	3954,83
896,45	4119,07
896,618	4058,18
896,786	4070,6
896,954	3934
897,122	3953,63
897,29	3917,18
897,458	3977,27
897,625	3921,99
897,793	3945,22
897,961	3920,78
898,129	3879,52
898,297	3825,85
898,464	3893,14
898,632	3778,98
898,8	3876,32
898,968	3695,66
899,135	3850,68
899,303	3627,96
899,471	3740,52
899,638	3705,27
899,806	3693,65
899,973	3593,51
900,141	3765,36
900,309	3627,16
900,476	3645,58
900,644	3730,51
900,811	3587,5
900,979	3602,72
901,146	3650,79
901,314	3545,44
901,481	3526,61
901,649	3527,01
901,816	3556,26
901,983	3515,4
902,151	3523,01
