Data from Subt4__4__14-36-33-640.txt Node

Date: Thu Feb 19 14:36:33 CET 2026
User: Versuch 234
Spectrometer: USB4F05580
Trigger mode: 4
Integration Time (sec): 7,500000E-2
Scans to average: 5
Electric dark correction enabled: true
Nonlinearity correction enabled: false
Boxcar width: 0
XAxis mode: Wavelengths
Number of Pixels in Spectrum: 3648
>>>>>Begin Spectral Data<<<<<
197,409	-5,14
197,623	-5,14
197,837	-5,14
198,051	76,58
198,265	34,12
198,479	-92,47
198,693	4,87
198,907	-8,35
199,122	22,5
199,336	-15,56
199,55	7,68
199,763	68,57
199,977	23,3
200,191	35,32
200,405	-15,96
200,619	-10,35
200,833	-19,56
201,047	18,09
201,261	50,54
201,475	30,51
201,689	20,5
201,903	15,29
202,117	-27,17
202,331	-26,77
202,545	4,07
202,758	48,54
202,972	-53,21
203,186	-74,44
203,4	45,33
203,614	56,15
203,828	-20,36
204,041	-7,94
204,255	2,87
204,469	-2,74
204,683	24,1
204,897	14,09
205,11	9,68
205,324	0,07
205,538	28,91
205,752	0,47
205,965	57,75
206,179	24,5
206,393	-74,44
206,606	8,88
206,82	-7,94
207,034	16,09
207,248	2,47
207,461	-11,95
207,675	2,47
207,889	25,7
208,102	35,72
208,316	-13,55
208,529	-23,57
208,743	-25,57
208,957	17,69
209,17	-49,2
209,384	68,17
209,597	-23,17
209,811	20,9
210,025	40,12
210,238	17,69
210,452	-27,97
210,665	55,35
210,879	53,34
211,092	-27,57
211,306	7,68
211,519	-55,21
211,733	-4,74
211,946	33,31
212,16	32,51
212,373	-35,18
212,587	18,49
212,8	-33,98
213,014	-34,38
213,227	22,5
213,44	15,69
213,654	44,93
213,867	74,17
214,081	62,56
214,294	-33,98
214,507	52,14
214,721	15,69
214,934	22,5
215,148	6,48
215,361	80,98
215,574	62,16
215,788	-78,45
216,001	71,37
216,214	21,7
216,428	41,33
216,641	-29,58
216,854	30,11
217,067	4,47
217,281	28,51
217,494	34,52
217,707	15,29
217,92	-26,77
218,134	6,48
218,347	65,36
218,56	60,55
218,773	-71,24
218,986	37,72
219,2	11,28
219,413	-38,39
219,626	1,67
219,839	46,93
220,052	51,34
220,265	-9,15
220,479	9,68
220,692	37,32
220,905	-16,36
221,118	18,09
221,331	-23,17
221,544	26,51
221,757	52,14
221,97	26,1
222,183	-44,8
222,396	46,13
222,609	41,33
222,822	-47,6
223,035	37,72
223,249	22,1
223,462	10,88
223,675	-56,42
223,887	20,1
224,1	38,92
224,313	32,11
224,526	30,11
224,739	6,08
224,952	47,74
225,165	2,87
225,378	17,29
225,591	93,4
225,804	-1,54
226,017	20,1
226,23	27,71
226,443	-8,75
226,656	2,47
226,868	-42,8
227,081	48,14
227,294	-33,18
227,507	28,51
227,72	-14,75
227,933	44,53
228,145	14,89
228,358	-4,34
228,571	40,53
228,784	-20,76
228,997	-79,25
229,209	22,5
229,422	46,13
229,635	28,51
229,848	-33,58
230,06	-47,2
230,273	-60,42
230,486	13,69
230,698	-40,79
230,911	-52,01
231,124	-28,37
231,336	-20,76
231,549	28,11
231,762	9,68
231,974	-61,22
232,187	-58,02
232,4	18,89
232,612	-19,56
232,825	-32,38
233,038	20,1
233,25	34,12
233,463	-1,94
233,675	-9,55
233,888	46,53
234,1	71,37
234,313	8,48
234,526	-6,34
234,738	-47,6
234,951	-50,01
235,163	-38,79
235,376	19,7
235,588	-58,02
235,801	2,47
236,013	-82,85
236,226	-6,74
236,438	-3,14
236,65	42,13
236,863	1,27
237,075	61,76
237,288	7,68
237,5	-48,4
237,713	-23,17
237,925	-32,78
238,137	-35,58
238,35	41,73
238,562	-9,55
238,774	81,38
238,987	86,59
239,199	19,7
239,411	8,88
239,624	17,69
239,836	77,38
240,048	-5,94
240,261	58,55
240,473	34,92
240,685	22,1
240,897	-64,03
241,11	-3,14
241,322	58,15
241,534	4,87
241,746	12,48
241,959	32,91
242,171	-0,33
242,383	-8,75
242,595	-41,19
242,807	17,29
243,02	31,31
243,232	22,9
243,444	-26,77
243,656	7,68
243,868	24,5
244,08	-54,01
244,293	-84,46
244,505	20,9
244,717	6,88
244,929	-56,42
245,141	-38,79
245,353	22,1
245,565	-7,14
245,777	-16,76
245,989	-5,94
246,201	-21,56
246,413	58,15
246,625	18,89
246,837	-23,97
247,049	19,7
247,261	43,73
247,473	-22,37
247,685	41,33
247,897	47,34
248,109	-60,02
248,321	25,3
248,533	-82,05
248,745	-9,95
248,957	31,71
249,169	-0,73
249,381	58,55
249,593	-28,37
249,804	65,76
250,016	40,12
250,228	-29,58
250,44	34,12
250,652	-34,38
250,864	-12,75
251,075	-10,35
251,287	-36,79
251,499	52,54
251,711	-11,55
251,923	-9,95
252,134	19,29
252,346	-45,6
252,558	47,34
252,77	-13,95
252,982	1,27
253,193	22,9
253,405	-7,54
253,617	16,89
253,828	-44
254,04	54,55
254,252	114,23
254,463	25,7
254,675	-23,57
254,887	-45,6
255,098	-3,94
255,31	-13,95
255,522	69,77
255,733	-19,56
255,945	49,74
256,157	22,9
256,368	-33,58
256,58	37,72
256,791	-1,54
257,003	40,12
257,214	24,1
257,426	14,09
257,637	-12,35
257,849	-0,73
258,061	86,19
258,272	38,12
258,484	-1,94
258,695	-11,15
258,907	33,31
259,118	24,5
259,329	-51,61
259,541	8,08
259,752	35,32
259,964	97,41
260,175	-9,95
260,387	-76,44
260,598	22,9
260,809	-35,18
261,021	-31,18
261,232	-15,56
261,444	-6,74
261,655	51,34
261,866	23,3
262,078	5,67
262,289	-8,35
262,5	-51,21
262,712	-26,77
262,923	-33,98
263,134	-52,41
263,345	40,12
263,557	-67,63
263,768	-33,18
263,979	-18,76
264,191	1,27
264,402	-32,38
264,613	18,09
264,824	2,47
265,035	-44,8
265,247	10,48
265,458	-51,61
265,669	-27,17
265,88	3,67
266,091	-11,55
266,302	-5,14
266,514	-37,19
266,725	-31,98
266,936	30,51
267,147	-27,97
267,358	3,67
267,569	8,08
267,78	26,91
267,991	-0,33
268,202	71,77
268,414	13,69
268,625	38,92
268,836	-40,79
269,047	78,98
269,258	-50,01
269,469	-3,14
269,68	22,1
269,891	-13,95
270,102	71,77
270,313	-19,56
270,524	-38,39
270,735	-7,94
270,945	4,07
271,156	75,38
271,367	28,51
271,578	50,94
271,789	-64,83
272	43,33
272,211	6,88
272,422	-56,82
272,633	42,53
272,844	-67,23
273,054	-56,01
273,265	1,67
273,476	-11,95
273,687	-70,84
273,898	19,29
274,109	-10,35
274,319	-37,99
274,53	111,03
274,741	32,11
274,952	-24,77
275,162	63,76
275,373	33,31
275,584	-20,36
275,795	-20,36
276,005	-38,79
276,216	-19,16
276,427	-25,57
276,637	-12,35
276,848	-13,95
277,059	-88,86
277,269	6,08
277,48	-19,96
277,691	10,48
277,901	-30,38
278,112	-48,4
278,323	-4,74
278,533	-6,34
278,744	-7,54
278,954	6,08
279,165	-2,34
279,376	-19,56
279,586	-75,64
279,797	-0,33
280,007	-39,99
280,218	38,12
280,428	49,74
280,639	34,52
280,849	-11,95
281,06	-11,95
281,27	-40,39
281,481	-42,39
281,691	1,67
281,902	-4,74
282,112	-21,97
282,322	78,58
282,533	3,27
282,743	13,69
282,954	6,48
283,164	-52,01
283,374	31,71
283,585	36,52
283,795	-46
284,006	-28,37
284,216	-3,14
284,426	14,89
284,637	-27,17
284,847	-39,99
285,057	60,15
285,268	24,5
285,478	-38,39
285,688	44,53
285,898	-33,18
286,109	-11,95
286,319	-21,97
286,529	38,92
286,739	-33,18
286,95	26,51
287,16	30,91
287,37	87,79
287,58	-17,96
287,79	11,68
288,001	26,91
288,211	-4,34
288,421	9,68
288,631	-32,78
288,841	-3,94
289,051	13,69
289,261	20,1
289,471	-50,41
289,682	-15,16
289,892	-13,15
290,102	-19,16
290,312	-67,23
290,522	-9,15
290,732	5,67
290,942	14,09
291,152	-3,54
291,362	34,52
291,572	-55,61
291,782	-5,94
291,992	61,76
292,202	7,68
292,412	-30,78
292,622	22,9
292,832	63,36
293,042	-10,75
293,252	-52,81
293,462	2,47
293,672	-7,94
293,881	60,96
294,091	6,88
294,301	1,67
294,511	30,91
294,721	84,99
294,931	49,34
295,141	5,27
295,35	-15,56
295,56	16,09
295,77	-38,39
295,98	-54,41
296,19	14,49
296,4	-11,15
296,609	-70,84
296,819	39,72
297,029	-7,14
297,239	38,52
297,448	32,11
297,658	-33,18
297,868	35,72
298,077	-30,78
298,287	-12,75
298,497	-28,37
298,706	-16,76
298,916	-66,83
299,126	32,11
299,335	45,73
299,545	24,9
299,755	-7,94
299,964	-17,56
300,174	44,53
300,384	62,96
300,593	22,1
300,803	-31,58
301,012	18,49
301,222	-21,97
301,431	-34,78
301,641	2,47
301,851	20,9
302,06	45,73
302,27	11,28
302,479	28,91
302,689	-1,13
302,898	-22,37
303,107	15,29
303,317	49,34
303,526	61,76
303,736	68,17
303,945	33,72
304,155	-19,96
304,364	52,14
304,574	14,09
304,783	-2,34
304,992	5,27
305,202	-15,96
305,411	31,31
305,62	26,91
305,83	42,13
306,039	14,09
306,248	30,11
306,458	-20,76
306,667	-86,46
306,876	10,88
307,086	-21,16
307,295	-10,35
307,504	-12,35
307,713	7,28
307,923	-58,02
308,132	20,9
308,341	-38,79
308,55	17,69
308,76	-28,78
308,969	-26,37
309,178	37,32
309,387	29,31
309,596	-11,95
309,805	8,88
310,015	13,29
310,224	5,27
310,433	-22,77
310,642	-53,61
310,851	-17,16
311,06	14,09
311,269	-9,95
311,478	-29,98
311,687	-43,2
311,896	-16,76
312,106	20,1
312,315	36,12
312,524	95,4
312,733	93,4
312,942	-59,62
313,151	64,16
313,36	-17,96
313,569	36,92
313,778	-34,78
313,987	-60,02
314,195	18,49
314,404	21,7
314,613	31,31
314,822	52,54
315,031	-6,74
315,24	-36,39
315,449	105,02
315,658	-56,42
315,867	-25,17
316,076	-13,55
316,284	30,91
316,493	51,34
316,702	9,68
316,911	26,51
317,12	-0,73
317,329	66,56
317,537	57,75
317,746	-97,27
317,955	35,72
318,164	33,72
318,372	-3,54
318,581	39,32
318,79	-17,16
318,999	5,27
319,207	-21,97
319,416	-52,81
319,625	-5,54
319,833	3,27
320,042	41,73
320,251	2,87
320,459	-9,15
320,668	4,47
320,877	19,29
321,085	-24,37
321,294	-92,07
321,502	4,87
321,711	-28,37
321,92	23,7
322,128	2,07
322,337	-59,62
322,545	72,17
322,754	16,49
322,962	24,9
323,171	-58,02
323,379	-10,75
323,588	20,5
323,796	-33,98
324,005	-11,95
324,213	5,27
324,422	44,13
324,63	-48
324,839	-29,58
325,047	-32,38
325,256	-38,79
325,464	12,08
325,672	36,92
325,881	-25,97
326,089	32,91
326,297	-5,94
326,506	-15,56
326,714	52,14
326,923	-26,77
327,131	-0,73
327,339	11,28
327,548	42,13
327,756	-49,2
327,964	-11,15
328,172	-21,16
328,381	16,49
328,589	4,07
328,797	-15,56
329,005	-3,94
329,214	-46,8
329,422	14,09
329,63	-57,62
329,838	90,6
330,046	-19,96
330,255	12,48
330,463	3,27
330,671	-42,39
330,879	97,41
331,087	1,27
331,295	-9,55
331,503	26,1
331,712	-23,17
331,92	24,1
332,128	4,47
332,336	55,75
332,544	-12,35
332,752	-3,14
332,96	-12,75
333,168	-14,75
333,376	-141,34
333,584	-13,15
333,792	32,51
334	14,09
334,208	14,09
334,416	30,51
334,624	-43,6
334,832	15,69
335,04	-14,35
335,248	-7,94
335,456	-3,54
335,664	-52,41
335,872	7,68
336,08	-80,45
336,287	-17,56
336,495	60,15
336,703	15,29
336,911	39,32
337,119	-63,22
337,327	28,11
337,535	29,31
337,742	-11,95
337,95	-9,55
338,158	-2,34
338,366	-31,98
338,573	-4,74
338,781	-15,96
338,989	36,12
339,197	30,91
339,404	-22,77
339,612	8,88
339,82	-24,37
340,028	-1,54
340,235	70,17
340,443	6,48
340,651	45,33
340,858	-98,08
341,066	-36,79
341,274	4,47
341,481	82,59
341,689	48,94
341,896	-45,6
342,104	76,98
342,312	11,68
342,519	25,7
342,727	2,87
342,934	22,5
343,142	6,88
343,349	-13,15
343,557	68,17
343,765	-51,21
343,972	19,7
344,18	11,28
344,387	39,32
344,594	37,32
344,802	104,22
345,009	-13,55
345,217	27,71
345,424	71,77
345,632	-28,37
345,839	4,07
346,047	8,08
346,254	1,67
346,461	18,09
346,669	29,71
346,876	23,7
347,083	11,68
347,291	-0,33
347,498	26,51
347,705	29,31
347,913	-28,78
348,12	-12,75
348,327	19,7
348,535	-5,94
348,742	21,3
348,949	-25,97
349,156	-15,96
349,364	-19,56
349,571	-6,74
349,778	-0,33
349,985	-33,18
350,192	34,12
350,4	42,93
350,607	6,88
350,814	24,9
351,021	-23,17
351,228	1,67
351,435	16,09
351,643	-20,76
351,85	30,91
352,057	64,56
352,264	28,51
352,471	2,07
352,678	45,73
352,885	30,91
353,092	-7,94
353,299	-27,97
353,506	-6,34
353,713	37,72
353,92	-27,17
354,127	74,57
354,334	-5,54
354,541	-18,76
354,748	41,33
354,955	63,36
355,162	29,31
355,369	-2,34
355,576	61,76
355,783	38,92
355,99	-8,75
356,197	-13,95
356,404	13,29
356,611	-29,98
356,817	-37,59
357,024	4,07
357,231	3,67
357,438	-33,58
357,645	-0,33
357,852	8,88
358,058	28,51
358,265	39,72
358,472	12,08
358,679	25,3
358,885	11,68
359,092	54,15
359,299	-53,61
359,506	-38,79
359,712	-12,75
359,919	-18,76
360,126	-34,78
360,333	-52,01
360,539	23,7
360,746	28,11
360,953	66,56
361,159	-27,97
361,366	-58,42
361,572	45,73
361,779	21,7
361,986	35,72
362,192	-9,55
362,399	23,3
362,605	17,69
362,812	15,69
363,019	-3,94
363,225	-13,15
363,432	81,79
363,638	-43,2
363,845	-12,35
364,051	38,92
364,258	7,68
364,464	82,59
364,671	-30,38
364,877	24,1
365,084	38,12
365,29	-25,57
365,496	50,14
365,703	-41,99
365,909	-26,77
366,116	23,7
366,322	0,87
366,528	1,27
366,735	1,27
366,941	-43,6
367,147	-14,35
367,354	61,76
367,56	32,51
367,766	34,52
367,973	56,55
368,179	4,87
368,385	-16,76
368,592	52,94
368,798	12,89
369,004	-7,94
369,21	-17,16
369,417	46,13
369,623	-33,98
369,829	30,11
370,035	25,7
370,241	35,72
370,448	-24,77
370,654	6,48
370,86	-17,96
371,066	24,1
371,272	76,58
371,478	12,48
371,684	48,54
371,891	26,1
372,097	11,28
372,303	-39,19
372,509	2,47
372,715	-37,99
372,921	-9,55
373,127	-5,94
373,333	17,29
373,539	-22,77
373,745	-13,55
373,951	3,67
374,157	-26,77
374,363	6,88
374,569	24,1
374,775	12,08
374,981	-12,35
375,187	-32,38
375,393	-7,54
375,599	30,11
375,804	-26,37
376,01	8,08
376,216	8,88
376,422	-11,55
376,628	23,7
376,834	26,91
377,04	28,11
377,246	4,47
377,451	-10,75
377,657	-61,62
377,863	34,52
378,069	-25,57
378,274	59,35
378,48	48,54
378,686	59,75
378,892	43,33
379,097	-7,54
379,303	46,93
379,509	-17,96
379,715	46,53
379,92	33,72
380,126	60,15
380,332	-51,21
380,537	14,49
380,743	90,2
380,949	-21,97
381,154	-18,76
381,36	-25,17
381,565	37,72
381,771	13,29
381,977	-4,74
382,182	24,5
382,388	4,47
382,593	-16,76
382,799	18,89
383,004	-64,83
383,21	-1,13
383,415	-37,99
383,621	-22,77
383,826	10,88
384,032	40,12
384,237	-54,01
384,443	-3,94
384,648	-49,61
384,854	84,19
385,059	-5,54
385,265	3,67
385,47	-13,95
385,675	42,93
385,881	32,11
386,086	-30,38
386,291	-5,54
386,497	55,35
386,702	-69,63
386,907	-11,95
387,113	-44
387,318	2,07
387,523	-32,38
387,729	-28,37
387,934	4,87
388,139	19,7
388,344	0,07
388,55	82,59
388,755	-36,79
388,96	40,53
389,165	92,2
389,371	18,09
389,576	-53,61
389,781	73,77
389,986	-33,18
390,191	49,34
390,396	-46,8
390,601	9,68
390,807	-26,77
391,012	26,91
391,217	40,12
391,422	21,7
391,627	-2,34
391,832	-79,25
392,037	60,96
392,242	80,98
392,447	17,29
392,652	-27,17
392,857	72,17
393,062	-13,95
393,267	41,33
393,472	-0,33
393,677	4,87
393,882	-4,34
394,087	-19,16
394,292	13,69
394,497	29,31
394,702	-3,54
394,907	58,15
395,112	-11,95
395,317	11,68
395,521	-14,35
395,726	6,08
395,931	-7,94
396,136	26,1
396,341	-75,64
396,546	-27,17
396,75	-15,96
396,955	11,68
397,16	-30,78
397,365	15,69
397,57	-4,74
397,774	-9,55
397,979	-23,17
398,184	-88,06
398,389	38,12
398,593	47,74
398,798	-13,95
399,003	-32,78
399,207	-23,97
399,412	-25,57
399,617	-44
399,821	-44,8
400,026	111,03
400,231	60,15
400,435	19,7
400,64	-7,94
400,844	-43,2
401,049	-27,97
401,254	-2,34
401,458	8,48
401,663	-29,98
401,867	31,71
402,072	21,3
402,276	26,1
402,481	-29,58
402,685	22,5
402,89	22,9
403,094	46,53
403,299	-15,96
403,503	69,77
403,708	-75,64
403,912	-15,56
404,116	-22,77
404,321	52,54
404,525	-28,78
404,73	44,53
404,934	22,9
405,138	23,3
405,343	62,96
405,547	8,88
405,751	18,09
405,956	-30,38
406,16	12,48
406,364	34,52
406,569	-7,54
406,773	-73,64
406,977	5,27
407,181	-44,8
407,386	36,92
407,59	-7,54
407,794	10,48
407,998	-62,82
408,202	-23,17
408,407	14,09
408,611	-6,34
408,815	-29,58
409,019	-41,59
409,223	46,13
409,427	27,31
409,632	69,37
409,836	20,9
410,04	-45,2
410,244	-18,76
410,448	-58,42
410,652	53,74
410,856	-36,39
411,06	-5,54
411,264	2,87
411,468	-3,54
411,672	-45,6
411,876	83,39
412,08	-29,58
412,284	-21,56
412,488	-25,57
412,692	36,92
412,896	-9,95
413,1	28,91
413,304	3,67
413,508	8,48
413,712	22,9
413,916	22,1
414,12	28,51
414,323	-2,34
414,527	-0,33
414,731	-4,34
414,935	45,73
415,139	58,95
415,343	26,51
415,546	59,35
415,75	16,89
415,954	55,75
416,158	-52,41
416,361	-80,85
416,565	-58,42
416,769	44,13
416,973	0,07
417,176	33,72
417,38	-54,01
417,584	-50,01
417,788	59,35
417,991	2,87
418,195	-5,94
418,398	12,48
418,602	5,27
418,806	-1,13
419,009	-33,18
419,213	43,73
419,417	50,14
419,62	4,87
419,824	10,08
420,027	-32,78
420,231	-82,05
420,434	-29,18
420,638	-51,21
420,841	41,33
421,045	18,09
421,248	-3,94
421,452	26,91
421,655	10,08
421,859	43,73
422,062	-19,56
422,266	4,87
422,469	-19,96
422,673	26,1
422,876	-27,57
423,079	6,08
423,283	-11,95
423,486	-5,54
423,689	-66,43
423,893	68,17
424,096	106,22
424,299	56,15
424,503	-23,97
424,706	-15,96
424,909	-0,73
425,113	-22,77
425,316	-3,94
425,519	90,2
425,722	53,74
425,926	-49,2
426,129	-17,16
426,332	22,1
426,535	24,5
426,739	-48,4
426,942	-41,59
427,145	-5,94
427,348	3,67
427,551	-28,37
427,754	50,14
427,957	-3,54
428,161	-31,58
428,364	16,09
428,567	6,08
428,77	-24,77
428,973	9,28
429,176	9,68
429,379	40,93
429,582	-107,69
429,785	10,48
429,988	-17,56
430,191	55,35
430,394	-58,82
430,597	-38,79
430,8	4,87
431,003	16,09
431,206	-67,23
431,409	-43,2
431,612	-66,83
431,815	54,15
432,018	77,78
432,221	-20,76
432,423	33,72
432,626	-71,64
432,829	5,67
433,032	82,59
433,235	46,93
433,438	-49,61
433,64	-98,08
433,843	52,14
434,046	33,31
434,249	-35,18
434,452	38,52
434,654	-62,82
434,857	9,68
435,06	-25,17
435,263	37,72
435,465	14,09
435,668	-26,37
435,871	90,2
436,073	4,87
436,276	-26,77
436,479	-23,17
436,681	46,93
436,884	44,93
437,087	13,69
437,289	-4,74
437,492	13,29
437,694	45,73
437,897	6,48
438,1	30,91
438,302	-17,96
438,505	18,09
438,707	-23,17
438,91	42,13
439,112	8,08
439,315	45,33
439,517	44,13
439,72	-18,76
439,922	-4,34
440,125	9,68
440,327	-32,78
440,529	-1,94
440,732	-52,81
440,934	0,87
441,137	-28,78
441,339	-1,54
441,541	-32,78
441,744	60,15
441,946	-27,97
442,148	14,09
442,351	3,27
442,553	-17,16
442,755	-45,2
442,958	-25,17
443,16	-56,01
443,362	18,09
443,565	14,09
443,767	24,1
443,969	-28,78
444,171	50,94
444,373	32,91
444,576	-0,73
444,778	-17,96
444,98	-37,59
445,182	51,34
445,384	-37,19
445,586	50,94
445,789	36,12
445,991	26,51
446,193	68,97
446,395	26,51
446,597	-23,97
446,799	21,7
447,001	10,88
447,203	-25,17
447,405	-23,57
447,607	-26,77
447,809	48,14
448,011	-74,44
448,213	18,89
448,415	-48
448,617	62,56
448,819	-56,01
449,021	-39,99
449,223	89,8
449,425	63,36
449,627	34,52
449,829	-70,84
450,031	-19,96
450,233	30,91
450,435	14,09
450,636	0,47
450,838	6,48
451,04	0,47
451,242	1,27
451,444	-0,73
451,646	-33,18
451,847	17,29
452,049	38,12
452,251	19,29
452,453	12,08
452,654	-21,16
452,856	-1,13
453,058	-10,75
453,26	-18,76
453,461	2,07
453,663	-46,4
453,865	-4,34
454,066	22,5
454,268	42,53
454,47	36,92
454,671	24,5
454,873	-9,15
455,074	-38,39
455,276	-37,99
455,478	6,48
455,679	54,95
455,881	36,12
456,082	20,1
456,284	21,3
456,485	22,1
456,687	21,3
456,888	-17,56
457,09	10,88
457,291	22,9
457,493	-21,56
457,694	-52,41
457,896	-36,39
458,097	41,33
458,299	-22,77
458,5	36,52
458,701	-13,55
458,903	102,21
459,104	5,27
459,306	43,33
459,507	13,69
459,708	20,9
459,91	-0,33
460,111	20,9
460,312	6,48
460,514	8,48
460,715	45,33
460,916	16,89
461,117	27,71
461,319	-9,55
461,52	-53,21
461,721	33,72
461,922	-14,75
462,124	22,5
462,325	-17,56
462,526	0,87
462,727	-22,77
462,928	63,36
463,129	28,51
463,331	34,12
463,532	3,27
463,733	14,09
463,934	18,89
464,135	-12,35
464,336	-13,95
464,537	48,54
464,738	-31,58
464,939	6,08
465,14	5,27
465,341	72,57
465,542	-37,99
465,743	31,31
465,944	64,96
466,145	-7,94
466,346	-44,8
466,547	70,17
466,748	-41,99
466,949	2,47
467,15	13,69
467,351	-19,56
467,552	24,1
467,753	-0,73
467,953	30,11
468,154	-21,16
468,355	51,74
468,556	-60,02
468,757	29,71
468,958	-56,42
469,158	-25,57
469,359	18,89
469,56	-6,34
469,761	15,69
469,962	40,53
470,162	6,48
470,363	-37,59
470,564	37,72
470,764	-11,95
470,965	81,79
471,166	43,33
471,366	-21,56
471,567	-76,44
471,768	3,27
471,968	-38,39
472,169	-22,77
472,37	16,89
472,57	10,88
472,771	-2,34
472,971	-17,56
473,172	-25,97
473,373	0,47
473,573	12,08
473,774	16,49
473,974	66,16
474,175	52,14
474,375	-57,22
474,576	33,72
474,776	-29,18
474,977	10,08
475,177	23,3
475,377	28,51
475,578	-48
475,778	31,31
475,979	3,27
476,179	-31,18
476,379	58,95
476,58	-1,54
476,78	15,29
476,981	57,35
477,181	-21,16
477,381	9,68
477,582	57,75
477,782	21,7
477,982	20,1
478,182	46,53
478,383	39,72
478,583	52,54
478,783	-11,55
478,983	30,91
479,184	36,92
479,384	18,09
479,584	-19,96
479,784	28,91
479,984	124,65
480,184	-52,41
480,385	14,89
480,585	29,31
480,785	-35,18
480,985	0,07
481,185	66,96
481,385	54,55
481,585	75,78
481,785	57,75
481,985	-30,38
482,185	39,72
482,385	66,96
482,585	-8,35
482,785	22,9
482,985	66,16
483,185	42,13
483,385	62,96
483,585	25,7
483,785	11,68
483,985	40,53
484,185	34,92
484,385	-13,15
484,585	-26,37
484,785	40,12
484,985	72,17
485,185	37,32
485,384	48,14
485,584	45,33
485,784	48,94
485,984	20,5
486,184	-2,34
486,383	-34,78
486,583	36,92
486,783	-9,15
486,983	-57,22
487,183	-29,98
487,382	44,53
487,582	-47,6
487,782	6,08
487,981	59,35
488,181	-39,19
488,381	-25,57
488,58	-13,95
488,78	32,11
488,98	-21,16
489,179	-78,05
489,379	-25,17
489,579	8,08
489,778	80,98
489,978	70,17
490,177	-111,7
490,377	-44,8
490,576	-26,77
490,776	-7,54
490,975	32,91
491,175	38,12
491,374	0,07
491,574	40,12
491,773	44,53
491,973	35,32
492,172	-8,35
492,372	57,35
492,571	50,94
492,771	-1,54
492,97	29,31
493,169	29,31
493,369	8,48
493,568	-4,34
493,767	8,08
493,967	53,74
494,166	-14,35
494,365	76,58
494,565	-12,35
494,764	-15,56
494,963	-55,21
495,163	62,16
495,362	43,33
495,561	55,35
495,76	93,4
495,959	-63,63
496,159	19,7
496,358	68,17
496,557	51,74
496,756	-60,02
496,955	-39,99
497,155	76,58
497,354	17,69
497,553	34,52
497,752	22,1
497,951	15,29
498,15	56,15
498,349	-23,57
498,548	30,11
498,747	25,7
498,946	-0,33
499,145	-1,13
499,344	5,27
499,543	26,1
499,742	-27,57
499,941	13,29
500,14	-16,76
500,339	-24,37
500,538	40,53
500,737	10,88
500,936	56,15
501,135	-18,76
501,334	42,13
501,533	65,76
501,732	25,3
501,931	-25,17
502,129	-31,18
502,328	0,87
502,527	-13,95
502,726	2,07
502,925	4,87
503,123	78,18
503,322	10,48
503,521	58,95
503,72	31,71
503,919	14,89
504,117	70,17
504,316	-2,34
504,515	28,51
504,713	10,88
504,912	-8,35
505,111	74,57
505,309	2,87
505,508	2,87
505,707	20,1
505,905	-41,19
506,104	48,94
506,302	17,29
506,501	24,9
506,7	44,53
506,898	-35,58
507,097	-15,96
507,295	-4,74
507,494	16,89
507,692	50,54
507,891	69,77
508,089	27,31
508,288	-83,25
508,486	15,29
508,685	-35,18
508,883	28,91
509,082	4,87
509,28	119,04
509,478	14,89
509,677	30,11
509,875	68,57
510,073	65,76
510,272	39,32
510,47	71,37
510,669	42,53
510,867	50,94
511,065	54,15
511,263	24,1
511,462	79,78
511,66	63,36
511,858	8,48
512,056	60,55
512,255	31,31
512,453	16,09
512,651	-37,19
512,849	80,58
513,048	44,93
513,246	78,98
513,444	68,57
513,642	49,34
513,84	-13,15
514,038	-18,76
514,236	-23,97
514,435	31,71
514,633	-25,97
514,831	6,08
515,029	26,1
515,227	43,73
515,425	49,74
515,623	-44,4
515,821	28,11
516,019	-1,54
516,217	-37,19
516,415	8,08
516,613	67,36
516,811	32,51
517,009	53,34
517,207	44,53
517,405	90,6
517,602	17,69
517,8	48,94
517,998	7,68
518,196	27,71
518,394	109,43
518,592	48,54
518,79	-29,18
518,987	53,34
519,185	56,15
519,383	7,28
519,581	49,74
519,779	83,79
519,976	37,32
520,174	56,55
520,372	2,47
520,57	110,23
520,767	64,56
520,965	100,61
521,163	71,37
521,36	58,95
521,558	70,17
521,756	32,11
521,953	101,41
522,151	107,42
522,349	76,98
522,546	93,8
522,744	132,26
522,941	147,08
523,139	174,72
523,336	247,63
523,534	231,6
523,731	107,02
523,929	126,25
524,126	155,49
524,324	57,75
524,521	89,4
524,719	125,05
524,916	151,89
525,114	103,02
525,311	212,78
525,509	98,21
525,706	137,87
525,903	94,2
526,101	181,93
526,298	163,5
526,496	150,28
526,693	117,04
526,89	200,76
527,088	188,34
527,285	101,01
527,482	187,14
527,679	163,9
527,877	139,07
528,074	191,54
528,271	242,02
528,468	286,08
528,666	304,91
528,863	369,4
529,06	337,36
529,257	393,84
529,454	446,71
529,652	479,96
529,849	621,37
530,046	730,73
530,243	1257,09
530,44	3777,54
530,637	14904,87
530,834	38302,79
531,031	53517,25
531,228	62853,98
531,425	63728,05
531,622	64522
531,819	64584,49
532,016	64642,57
532,213	64634,56
532,41	64574,47
532,607	44140,45
532,804	18787,7
533,001	5652,26
533,198	3628,13
533,395	2630,28
533,592	1667,68
533,789	1064,41
533,986	786,01
534,183	505,2
534,38	438,7
534,576	385,83
534,773	321,73
534,97	338,96
535,167	240,01
535,364	297,3
535,561	239,61
535,757	200,76
535,954	226,39
536,151	209,97
536,348	205,16
536,544	129,05
536,741	128,25
536,938	100,61
537,134	148,68
537,331	141,87
537,528	184,73
537,724	87,39
537,921	94,6
538,118	167,11
538,314	76,18
538,511	142,67
538,707	120,24
538,904	93
539,101	129,45
539,297	71,37
539,494	129,45
539,69	119,44
539,887	103,42
540,083	86,99
540,28	103,02
540,476	48,54
540,673	42,53
540,869	2,87
541,066	71,37
541,262	86,19
541,458	96,21
541,655	76,18
541,851	191,14
542,048	43,33
542,244	25,7
542,44	42,93
542,637	40,93
542,833	70,17
543,029	34,52
543,226	39,72
543,422	137,87
543,618	78,18
543,814	33,31
544,011	0,87
544,207	-19,96
544,403	94,2
544,599	39,72
544,796	24,5
544,992	-19,56
545,188	22,1
545,384	49,34
545,58	70,17
545,776	19,29
545,972	80,58
546,169	49,74
546,365	-13,55
546,561	64,16
546,757	-6,34
546,953	0,47
547,149	51,34
547,345	23,3
547,541	16,89
547,737	12,48
547,933	38,52
548,129	30,51
548,325	14,09
548,521	-3,54
548,717	24,5
548,913	-25,57
549,109	124,65
549,305	44,13
549,501	32,91
549,697	32,11
549,892	45,73
550,088	38,52
550,284	21,7
550,48	-5,14
550,676	81,79
550,872	38,12
551,067	4,47
551,263	69,77
551,459	54,55
551,655	76,58
551,85	-46
552,046	61,76
552,242	-31,98
552,438	-3,54
552,633	35,72
552,829	-1,13
553,025	93
553,22	-19,96
553,416	-56,01
553,612	0,07
553,807	66,96
554,003	83,39
554,198	31,31
554,394	-100,08
554,59	58,15
554,785	-25,97
554,981	60,55
555,176	4,07
555,372	11,28
555,567	6,08
555,763	95
555,958	-45,6
556,154	-0,73
556,349	-16,36
556,545	-31,58
556,74	11,28
556,936	-41,99
557,131	4,47
557,326	24,1
557,522	-6,74
557,717	56,95
557,912	33,72
558,108	27,31
558,303	-6,74
558,498	63,76
558,694	75,38
558,889	73,37
559,084	-62,02
559,28	1,67
559,475	0,87
559,67	54,55
559,865	63,76
560,061	28,91
560,256	-25,17
560,451	-9,15
560,646	-57,22
560,841	15,29
561,037	-98,08
561,232	-24,77
561,427	51,74
561,622	-21,16
561,817	4,47
562,012	-6,34
562,207	-73,64
562,402	-78,05
562,597	-7,54
562,792	-29,18
562,987	24,9
563,182	56,95
563,377	-7,94
563,572	-24,37
563,767	42,13
563,962	-0,33
564,157	-21,56
564,352	11,68
564,547	11,68
564,742	48,94
564,937	-23,17
565,132	-3,14
565,327	-27,57
565,522	-35,58
565,716	0,07
565,911	32,11
566,106	38,92
566,301	30,91
566,496	40,53
566,691	10,88
566,885	43,73
567,08	-16,76
567,275	23,7
567,47	-15,96
567,664	-26,37
567,859	14,09
568,054	-23,57
568,248	-79,65
568,443	63,36
568,638	20,5
568,832	-7,14
569,027	-13,55
569,222	-35,58
569,416	-0,33
569,611	-59,62
569,805	38,52
570	-15,96
570,195	-2,34
570,389	-24,37
570,584	-6,74
570,778	26,91
570,973	42,93
571,167	31,71
571,362	28,11
571,556	22,5
571,751	-3,14
571,945	-28,78
572,139	6,08
572,334	-52,81
572,528	4,87
572,723	20,9
572,917	-61,22
573,111	-2,74
573,306	0,07
573,5	-15,96
573,694	31,71
573,889	39,32
574,083	5,27
574,277	5,27
574,472	29,71
574,666	30,51
574,86	20,5
575,054	69,77
575,249	-24,77
575,443	15,29
575,637	60,55
575,831	8,08
576,025	95,81
576,219	-11,95
576,414	20,1
576,608	25,7
576,802	-53,61
576,996	86,19
577,19	17,69
577,384	50,94
577,578	-88,86
577,772	-11,15
577,966	84,19
578,16	35,32
578,354	-4,34
578,548	-3,54
578,742	10,08
578,936	9,28
579,13	-4,74
579,324	18,89
579,518	12,08
579,712	26,51
579,906	-47,2
580,1	33,72
580,294	-39,19
580,488	-62,42
580,682	-42,39
580,875	39,72
581,069	-48,4
581,263	-81,65
581,457	57,35
581,651	41,33
581,845	-37,19
582,038	41,33
582,232	30,51
582,426	-40,39
582,62	-33,98
582,813	-48
583,007	-52,81
583,201	28,51
583,394	24,1
583,588	0,47
583,782	-4,74
583,975	41,33
584,169	1,27
584,363	42,93
584,556	22,9
584,75	-40,79
584,943	8,08
585,137	38,92
585,33	-48,8
585,524	32,51
585,718	4,87
585,911	80,98
586,105	-15,16
586,298	58,15
586,491	-10,35
586,685	-25,57
586,878	38,52
587,072	-25,57
587,265	54,55
587,459	57,35
587,652	-6,34
587,845	-18,36
588,039	32,91
588,232	53,34
588,426	39,32
588,619	31,71
588,812	-19,56
589,005	46,93
589,199	42,93
589,392	-56,42
589,585	6,48
589,779	-34,78
589,972	69,77
590,165	72,57
590,358	-23,17
590,551	64,16
590,745	5,27
590,938	86,19
591,131	-17,16
591,324	-0,33
591,517	-55,61
591,71	26,91
591,904	-11,95
592,097	-3,54
592,29	44,53
592,483	52,14
592,676	-95,27
592,869	8,48
593,062	56,95
593,255	-9,55
593,448	-70,44
593,641	61,36
593,834	32,51
594,027	-62,02
594,22	62,16
594,413	1,27
594,606	-17,56
594,799	45,33
594,992	-49,61
595,184	-7,14
595,377	38,52
595,57	-21,56
595,763	12,08
595,956	-10,35
596,149	40,93
596,341	16,09
596,534	-16,36
596,727	56,95
596,92	-42,8
597,113	-63,22
597,305	25,3
597,498	40,93
597,691	-4,34
597,883	31,71
598,076	18,49
598,269	42,13
598,462	37,32
598,654	-2,74
598,847	-35,99
599,039	5,27
599,232	12,89
599,425	20,9
599,617	33,72
599,81	7,28
600,002	2,07
600,195	-46,8
600,387	15,69
600,58	7,28
600,772	64,16
600,965	-13,55
601,157	-10,35
601,35	-44,8
601,542	7,68
601,735	-38,39
601,927	61,76
602,12	6,88
602,312	35,72
602,504	-78,85
602,697	-10,35
602,889	-3,54
603,082	36,52
603,274	46,13
603,466	52,94
603,659	-2,34
603,851	29,71
604,043	-1,13
604,235	32,91
604,428	62,56
604,62	3,67
604,812	50,94
605,004	6,48
605,197	-23,17
605,389	60,55
605,581	-18,36
605,773	56,15
605,965	63,36
606,157	-41,99
606,349	-3,14
606,542	42,93
606,734	-9,95
606,926	74,98
607,118	-8,35
607,31	0,47
607,502	-5,94
607,694	42,13
607,886	-15,96
608,078	-21,56
608,27	20,5
608,462	29,71
608,654	-28,37
608,846	9,68
609,038	-30,78
609,23	66,96
609,422	36,92
609,614	-78,45
609,805	-33,58
609,997	61,36
610,189	-64,03
610,381	38,12
610,573	-7,94
610,765	-8,35
610,957	2,47
611,148	36,12
611,34	39,72
611,532	-5,14
611,724	96,21
611,915	8,48
612,107	48,14
612,299	25,3
612,491	33,31
612,682	84,99
612,874	-37,59
613,066	-49,2
613,257	-3,54
613,449	5,27
613,64	-11,95
613,832	22,5
614,024	-29,98
614,215	69,37
614,407	-12,75
614,598	36,52
614,79	67,36
614,981	-38,39
615,173	4,87
615,364	-47,6
615,556	-37,19
615,747	61,76
615,939	-27,97
616,13	-38,39
616,322	112,23
616,513	19,29
616,705	-8,35
616,896	46,53
617,087	75,78
617,279	4,07
617,47	-15,96
617,661	12,08
617,853	53,34
618,044	-32,78
618,235	-21,56
618,427	59,35
618,618	-36,79
618,809	6,88
619	27,71
619,192	5,27
619,383	-33,58
619,574	15,69
619,765	-4,74
619,957	72,57
620,148	33,72
620,339	-11,55
620,53	12,48
620,721	-47,2
620,912	8,88
621,103	24,5
621,294	26,51
621,485	8,48
621,677	47,34
621,868	35,72
622,059	-26,77
622,25	39,72
622,441	-39,99
622,632	34,12
622,823	12,89
623,014	7,28
623,205	40,93
623,395	29,71
623,586	4,87
623,777	49,74
623,968	-29,98
624,159	34,52
624,35	-3,94
624,541	18,09
624,732	62,16
624,923	15,29
625,113	-24,77
625,304	-3,14
625,495	-41,19
625,686	-6,34
625,877	44,93
626,067	-38,79
626,258	15,29
626,449	-10,75
626,639	-23,57
626,83	51,34
627,021	2,47
627,211	-39,19
627,402	52,54
627,593	-106,09
627,783	22,9
627,974	-14,75
628,165	11,68
628,355	2,47
628,546	-2,74
628,736	19,7
628,927	17,69
629,117	20,9
629,308	1,27
629,498	4,47
629,689	43,73
629,879	7,68
630,07	31,31
630,26	-28,78
630,451	-38,79
630,641	-4,34
630,832	68,17
631,022	14,49
631,212	53,34
631,403	-22,77
631,593	69,77
631,784	-29,18
631,974	96,61
632,164	19,29
632,355	-8,35
632,545	-18,76
632,735	26,1
632,925	-23,17
633,116	43,73
633,306	-65,63
633,496	-10,75
633,686	17,29
633,876	58,15
634,067	-22,37
634,257	16,49
634,447	-9,15
634,637	-8,35
634,827	-36,39
635,017	-79,65
635,208	7,28
635,398	-13,15
635,588	21,7
635,778	-33,58
635,968	26,91
636,158	40,53
636,348	8,88
636,538	6,08
636,728	22,1
636,918	42,53
637,108	55,75
637,298	0,47
637,488	10,48
637,678	7,28
637,868	-17,56
638,057	64,16
638,247	27,71
638,437	56,95
638,627	86,19
638,817	-13,15
639,007	-55,61
639,197	27,71
639,386	-22,37
639,576	62,16
639,766	-58,02
639,956	43,73
640,145	25,3
640,335	35,72
640,525	3,67
640,715	46,93
640,904	31,31
641,094	28,91
641,284	-24,37
641,473	15,29
641,663	17,69
641,853	-36,79
642,042	-11,95
642,232	18,49
642,421	-17,56
642,611	72,97
642,801	-20,36
642,99	33,72
643,18	72,17
643,369	48,14
643,559	40,12
643,748	99,41
643,938	54,95
644,127	-13,95
644,317	-50,01
644,506	-4,74
644,695	58,95
644,885	-34,38
645,074	-97,67
645,264	28,11
645,453	1,67
645,642	-17,16
645,832	-7,94
646,021	18,49
646,21	38,52
646,4	-53,21
646,589	34,52
646,778	36,52
646,967	-70,44
647,157	-52,01
647,346	26,51
647,535	-34,78
647,724	1,27
647,913	20,5
648,103	-19,56
648,292	14,89
648,481	2,87
648,67	55,75
648,859	36,52
649,048	54,95
649,237	-103,68
649,427	81,38
649,616	8,48
649,805	82,59
649,994	-47,2
650,183	19,29
650,372	63,36
650,561	-16,76
650,75	22,9
650,939	-19,56
651,128	-18,36
651,317	5,27
651,506	-21,16
651,694	59,75
651,883	97,01
652,072	-20,76
652,261	-11,95
652,45	5,27
652,639	15,69
652,828	1,27
653,016	34,12
653,205	-55,61
653,394	-4,74
653,583	-55,61
653,772	29,31
653,96	-52,01
654,149	-54,41
654,338	16,49
654,527	-19,56
654,715	4,47
654,904	29,71
655,093	-33,98
655,281	0,47
655,47	21,3
655,658	-24,77
655,847	-41,99
656,036	-3,54
656,224	-10,75
656,413	-12,75
656,601	-48,8
656,79	-28,37
656,978	22,1
657,167	32,11
657,355	8,48
657,544	-54,81
657,732	36,92
657,921	-63,63
658,109	-36,39
658,298	2,07
658,486	28,91
658,675	-13,15
658,863	85,39
659,051	28,51
659,24	-11,55
659,428	-67,23
659,616	-16,36
659,805	-35,58
659,993	-64,83
660,181	-51,61
660,37	24,5
660,558	-3,14
660,746	23,7
660,934	-61,62
661,123	-52,81
661,311	-45,2
661,499	107,02
661,687	-23,17
661,875	6,08
662,064	25,7
662,252	-21,16
662,44	-26,77
662,628	-47,2
662,816	8,48
663,004	44,93
663,192	-49,2
663,38	32,91
663,568	36,52
663,756	-46,4
663,944	12,08
664,132	21,3
664,32	29,71
664,508	14,49
664,696	-71,64
664,884	16,49
665,072	-20,36
665,26	-21,56
665,448	48,94
665,636	-69,63
665,824	88,6
666,012	-16,36
666,199	-14,35
666,387	-3,54
666,575	-11,15
666,763	-44,4
666,951	-8,75
667,139	8,08
667,326	17,29
667,514	-25,17
667,702	-1,13
667,889	42,93
668,077	20,5
668,265	-29,18
668,453	-13,15
668,64	-46,4
668,828	-31,98
669,016	6,08
669,203	-16,36
669,391	52,54
669,578	56,15
669,766	0,47
669,954	-1,54
670,141	-9,55
670,329	-81,25
670,516	2,47
670,704	48,54
670,891	-3,14
671,079	-7,14
671,266	65,76
671,454	12,48
671,641	16,49
671,828	14,49
672,016	-70,84
672,203	-54,01
672,391	26,1
672,578	26,91
672,765	-58,02
672,953	-1,94
673,14	50,94
673,327	-11,15
673,515	2,07
673,702	-40,39
673,889	-10,75
674,077	-82,85
674,264	4,47
674,451	-21,16
674,638	31,71
674,825	-76,84
675,013	-44,8
675,2	24,9
675,387	-41,19
675,574	-77,25
675,761	22,5
675,948	5,67
676,136	26,51
676,323	-18,76
676,51	-42,8
676,697	68,17
676,884	23,7
677,071	48,94
677,258	69,37
677,445	-10,75
677,632	-11,55
677,819	-39,59
678,006	-32,78
678,193	-31,58
678,38	-78,85
678,567	8,48
678,754	51,74
678,94	20,9
679,127	7,28
679,314	5,27
679,501	-34,78
679,688	34,52
679,875	-17,16
680,062	45,33
680,248	52,94
680,435	20,9
680,622	28,11
680,809	4,47
680,995	56,55
681,182	-9,55
681,369	3,67
681,556	12,08
681,742	83,39
681,929	35,32
682,116	66,16
682,302	-71,64
682,489	25,7
682,675	-76,04
682,862	83,39
683,049	28,11
683,235	20,9
683,422	-21,16
683,608	26,91
683,795	-36,79
683,981	-57,62
684,168	-5,54
684,354	33,72
684,541	20,9
684,727	38,92
684,914	3,67
685,1	-14,35
685,287	2,87
685,473	20,5
685,659	-0,33
685,846	38,52
686,032	-48
686,218	12,08
686,405	16,49
686,591	-12,75
686,777	-3,14
686,964	17,29
687,15	70,97
687,336	4,07
687,522	10,48
687,709	-34,38
687,895	19,7
688,081	16,89
688,267	-18,36
688,454	39,32
688,64	24,9
688,826	32,51
689,012	-40,39
689,198	-21,16
689,384	16,09
689,57	23,7
689,756	-20,36
689,942	16,09
690,128	1,27
690,314	27,71
690,501	-35,58
690,687	21,3
690,873	13,29
691,058	-15,56
691,244	-29,58
691,43	-71,64
691,616	13,69
691,802	-75,64
691,988	16,89
692,174	18,49
692,36	10,48
692,546	-32,38
692,732	77,38
692,917	48,94
693,103	33,72
693,289	78,58
693,475	16,49
693,661	5,67
693,846	15,69
694,032	-89,26
694,218	-0,33
694,404	65,76
694,589	12,48
694,775	43,73
694,961	-15,56
695,146	-44,8
695,332	-10,35
695,518	16,09
695,703	-20,36
695,889	33,31
696,074	-8,35
696,26	-28,37
696,446	-39,19
696,631	43,33
696,817	42,53
697,002	18,49
697,188	-1,13
697,373	5,27
697,559	4,07
697,744	1,67
697,93	54,55
698,115	-59,62
698,3	-66,43
698,486	-14,75
698,671	14,89
698,857	-32,38
699,042	-120,11
699,227	83,79
699,413	-28,78
699,598	34,52
699,783	5,67
699,969	98,21
700,154	-45,6
700,339	-29,18
700,524	-32,38
700,71	-18,36
700,895	-44
701,08	40,93
701,265	-78,05
701,45	20,9
701,636	-5,94
701,821	-46
702,006	-50,81
702,191	17,29
702,376	-53,21
702,561	9,28
702,746	-20,36
702,931	93,4
703,116	-0,33
703,301	-11,15
703,486	9,68
703,671	-82,45
703,856	-58,02
704,041	44,13
704,226	52,14
704,411	-25,17
704,596	-29,58
704,781	-25,17
704,966	17,69
705,151	21,3
705,336	-49,2
705,521	12,48
705,706	25,7
705,89	-25,57
706,075	-23,57
706,26	15,69
706,445	-5,94
706,63	-59,22
706,814	2,87
706,999	12,48
707,184	10,08
707,368	20,9
707,553	16,49
707,738	-38,39
707,923	76,58
708,107	-8,35
708,292	6,48
708,476	44,93
708,661	-7,14
708,846	27,31
709,03	15,69
709,215	32,51
709,399	0,87
709,584	-57,22
709,768	83,39
709,953	8,08
710,137	3,27
710,322	-86,06
710,506	-40,39
710,691	8,08
710,875	-14,35
711,06	16,09
711,244	22,9
711,429	-7,54
711,613	-10,75
711,797	-21,56
711,982	-7,54
712,166	46,93
712,35	-15,16
712,535	73,77
712,719	104,22
712,903	6,88
713,088	-15,56
713,272	7,28
713,456	-33,58
713,64	-1,13
713,824	-40,79
714,009	38,92
714,193	-56,42
714,377	-19,56
714,561	-9,95
714,745	60,55
714,929	71,37
715,113	17,69
715,298	6,88
715,482	58,95
715,666	-59,22
715,85	-14,35
716,034	-3,94
716,218	-38,79
716,402	-13,55
716,586	5,67
716,77	20,1
716,954	8,08
717,138	-15,96
717,322	-22,77
717,506	18,89
717,689	-27,97
717,873	-54,81
718,057	31,31
718,241	30,91
718,425	-11,95
718,609	26,1
718,793	1,67
718,976	29,31
719,16	63,76
719,344	44,13
719,528	61,76
719,711	-25,97
719,895	43,73
720,079	53,34
720,263	25,3
720,446	-47,6
720,63	-39,99
720,814	-113,7
720,997	-1,13
721,181	-1,94
721,364	-27,57
721,548	10,08
721,732	-6,34
721,915	51,74
722,099	-3,94
722,282	37,32
722,466	28,51
722,649	-94,87
722,833	19,7
723,016	1,27
723,2	33,31
723,383	-33,18
723,567	-17,56
723,75	20,1
723,934	40,12
724,117	-21,97
724,3	-9,55
724,484	-2,74
724,667	-16,76
724,85	3,27
725,034	-8,35
725,217	0,07
725,4	9,68
725,584	38,92
725,767	-66,83
725,95	32,91
726,133	-50,41
726,317	-41,99
726,5	-40,39
726,683	7,68
726,866	50,94
727,049	-15,16
727,232	-25,57
727,416	-15,96
727,599	-3,14
727,782	-47,2
727,965	-18,76
728,148	88,6
728,331	78,98
728,514	14,49
728,697	-27,97
728,88	-78,85
729,063	40,53
729,246	-23,17
729,429	11,28
729,612	-0,33
729,795	15,29
729,978	26,91
730,161	26,51
730,344	-4,34
730,526	16,49
730,709	38,52
730,892	19,7
731,075	-11,15
731,258	33,31
731,441	38,12
731,623	-3,54
731,806	-29,98
731,989	-2,34
732,172	-44
732,354	-15,56
732,537	69,37
732,72	-46,4
732,903	86,59
733,085	-0,33
733,268	44,93
733,451	-25,57
733,633	32,91
733,816	50,14
733,998	-43,2
734,181	-54,41
734,364	-3,14
734,546	-9,95
734,729	-27,57
734,911	-11,15
735,094	-16,76
735,276	37,72
735,459	-32,78
735,641	-17,56
735,824	-30,38
736,006	9,68
736,188	8,88
736,371	-56,42
736,553	2,87
736,736	35,32
736,918	-15,16
737,1	34,92
737,283	-55,61
737,465	2,07
737,647	12,08
737,83	-56,82
738,012	9,28
738,194	16,49
738,376	-32,78
738,559	1,67
738,741	-5,94
738,923	-7,54
739,105	65,36
739,287	1,27
739,469	1,27
739,652	51,34
739,834	1,67
740,016	67,36
740,198	23,7
740,38	-19,96
740,562	-15,16
740,744	78,98
740,926	-33,98
741,108	6,48
741,29	-3,54
741,472	-0,73
741,654	35,72
741,836	76,98
742,018	62,56
742,2	85,79
742,382	24,5
742,564	42,13
742,746	18,09
742,928	41,73
743,109	-21,16
743,291	-78,45
743,473	-7,94
743,655	-19,96
743,837	-0,73
744,019	28,91
744,2	36,52
744,382	-1,54
744,564	-48
744,746	-49,2
744,927	20,1
745,109	3,67
745,291	35,32
745,472	-9,15
745,654	24,1
745,836	29,31
746,017	-1,13
746,199	33,31
746,38	15,69
746,562	-118,51
746,744	34,52
746,925	26,51
747,107	34,12
747,288	43,33
747,47	-65,23
747,651	-36,79
747,833	-61,62
748,014	-4,34
748,195	71,77
748,377	-1,54
748,558	-23,97
748,74	20,9
748,921	32,51
749,102	42,53
749,284	-24,37
749,465	94,2
749,646	20,1
749,828	-30,78
750,009	-6,74
750,19	59,35
750,372	52,54
750,553	47,74
750,734	22,9
750,915	-81,25
751,096	32,91
751,278	21,3
751,459	61,36
751,64	-23,17
751,821	49,74
752,002	-26,77
752,183	33,72
752,364	1,27
752,546	-4,34
752,727	8,88
752,908	38,12
753,089	-23,97
753,27	56,95
753,451	23,3
753,632	9,68
753,813	-60,02
753,994	14,49
754,175	-11,55
754,356	12,08
754,536	25,3
754,717	-31,58
754,898	80,98
755,079	56,55
755,26	25,7
755,441	-5,14
755,622	6,88
755,802	30,91
755,983	-20,76
756,164	7,68
756,345	15,69
756,526	13,69
756,706	44,93
756,887	7,68
757,068	56,95
757,248	54,95
757,429	-7,94
757,61	-14,35
757,79	-26,77
757,971	-6,34
758,152	-20,36
758,332	-78,85
758,513	19,29
758,693	-6,34
758,874	39,32
759,055	76,58
759,235	58,55
759,416	-23,97
759,596	-11,55
759,777	33,31
759,957	-54,01
760,137	59,75
760,318	-9,55
760,498	41,73
760,679	-15,56
760,859	-21,97
761,039	73,77
761,22	-2,74
761,4	-15,16
761,581	66,16
761,761	15,29
761,941	83,79
762,121	21,7
762,302	-60,02
762,482	54,55
762,662	-34,38
762,842	8,08
763,023	35,32
763,203	-15,96
763,383	11,68
763,563	-19,16
763,743	10,88
763,923	-8,75
764,104	24,1
764,284	-14,75
764,464	25,3
764,644	-10,35
764,824	14,09
765,004	-3,14
765,184	19,7
765,364	-23,97
765,544	-27,97
765,724	-40,79
765,904	13,29
766,084	29,31
766,264	3,67
766,444	74,98
766,624	-21,56
766,804	-70,03
766,983	38,92
767,163	57,35
767,343	5,27
767,523	26,51
767,703	14,49
767,883	28,11
768,062	-17,96
768,242	-4,34
768,422	-29,58
768,602	-19,56
768,781	-31,98
768,961	-40,39
769,141	-54,01
769,32	29,31
769,5	-13,15
769,68	-6,74
769,859	-24,77
770,039	73,37
770,219	-44
770,398	-5,14
770,578	8,88
770,757	-29,58
770,937	-17,96
771,116	-29,58
771,296	-15,96
771,475	-54,41
771,655	-35,99
771,834	32,11
772,014	22,9
772,193	67,36
772,373	-2,74
772,552	-78,45
772,731	-71,64
772,911	14,09
773,09	20,9
773,269	27,71
773,449	16,09
773,628	30,11
773,807	7,28
773,987	-3,54
774,166	-22,77
774,345	17,29
774,524	0,47
774,704	-56,42
774,883	-22,77
775,062	33,31
775,241	45,73
775,42	2,87
775,6	-3,54
775,779	-37,59
775,958	18,89
776,137	63,76
776,316	39,72
776,495	24,5
776,674	-38,79
776,853	-3,14
777,032	14,49
777,211	8,08
777,39	-31,98
777,569	-13,15
777,748	0,47
777,927	-16,76
778,106	12,48
778,285	22,9
778,464	-38,79
778,643	14,09
778,822	-10,35
779	67,36
779,179	-7,94
779,358	50,94
779,537	-7,54
779,716	-53,21
779,894	-17,56
780,073	5,27
780,252	-72,44
780,431	12,08
780,609	-31,58
780,788	30,51
780,967	-42,8
781,145	44,13
781,324	20,1
781,503	-68,43
781,681	-6,74
781,86	-0,33
782,039	17,69
782,217	-62,82
782,396	-28,78
782,574	-14,75
782,753	71,77
782,931	16,49
783,11	41,73
783,288	-52,01
783,467	65,36
783,645	-107,69
783,824	-7,94
784,002	-42,8
784,18	-64,83
784,359	51,74
784,537	-63,22
784,716	-24,37
784,894	43,33
785,072	-63,63
785,251	47,74
785,429	-46,8
785,607	27,71
785,785	-1,54
785,964	17,69
786,142	-115,3
786,32	4,87
786,498	-25,17
786,677	21,3
786,855	-7,54
787,033	16,09
787,211	-19,16
787,389	30,91
787,567	40,12
787,745	-31,58
787,923	49,34
788,102	8,88
788,28	12,48
788,458	-37,19
788,636	-24,77
788,814	-12,35
788,992	5,27
789,17	19,7
789,348	46,13
789,526	35,72
789,703	6,48
789,881	-7,14
790,059	4,07
790,237	17,69
790,415	-3,14
790,593	-6,34
790,771	-14,75
790,949	-20,76
791,126	56,15
791,304	-16,76
791,482	-35,99
791,66	10,08
791,837	14,49
792,015	-1,54
792,193	6,08
792,371	25,3
792,548	39,72
792,726	6,48
792,904	-35,18
793,081	-28,78
793,259	-62,42
793,436	56,55
793,614	9,28
793,792	50,94
793,969	59,75
794,147	15,29
794,324	84,99
794,502	68,17
794,679	-52,01
794,857	20,5
795,034	27,31
795,212	-40,39
795,389	-9,15
795,567	6,88
795,744	68,17
795,921	-28,78
796,099	2,87
796,276	23,3
796,453	31,71
796,631	-11,55
796,808	-39,99
796,985	-7,94
797,163	76,58
797,34	-20,36
797,517	39,32
797,694	15,69
797,872	-25,97
798,049	-11,55
798,226	26,91
798,403	-3,14
798,58	49,34
798,757	-13,95
798,935	66,96
799,112	-8,35
799,289	-72,44
799,466	-17,16
799,643	42,53
799,82	31,71
799,997	39,72
800,174	14,49
800,351	-30,78
800,528	32,11
800,705	15,29
800,882	29,31
801,059	36,92
801,236	11,68
801,413	-16,36
801,589	16,49
801,766	-20,36
801,943	9,68
802,12	53,34
802,297	44,53
802,474	-37,59
802,651	-0,73
802,827	-5,94
803,004	22,1
803,181	45,73
803,358	36,92
803,534	-9,55
803,711	0,47
803,888	-38,39
804,064	-9,55
804,241	-44,8
804,418	-61,62
804,594	-21,16
804,771	-65,23
804,947	64,56
805,124	-10,35
805,301	49,74
805,477	55,35
805,654	42,13
805,83	-46
806,007	19,7
806,183	40,53
806,36	23,7
806,536	2,47
806,712	-20,76
806,889	-18,36
807,065	-0,33
807,242	12,48
807,418	22,9
807,594	21,7
807,771	-3,94
807,947	-14,35
808,123	-19,96
808,3	18,49
808,476	-35,58
808,652	-30,38
808,829	0,47
809,005	50,94
809,181	-17,56
809,357	17,69
809,533	-41,19
809,71	32,51
809,886	-6,34
810,062	56,95
810,238	-29,18
810,414	14,89
810,59	-44,4
810,766	-24,77
810,942	32,91
811,118	-4,74
811,294	-27,17
811,47	-9,55
811,646	60,55
811,822	-8,35
811,998	45,33
812,174	-10,75
812,35	3,67
812,526	-18,76
812,702	-33,18
812,878	16,49
813,054	31,71
813,23	-16,76
813,405	15,69
813,581	22,9
813,757	38,12
813,933	55,75
814,109	-44,8
814,284	79,38
814,46	36,92
814,636	0,87
814,812	-3,14
814,987	-21,16
815,163	-13,95
815,339	3,27
815,514	-48,4
815,69	-33,18
815,866	-45,2
816,041	12,89
816,217	60,15
816,392	12,89
816,568	23,3
816,743	44,13
816,919	-18,76
817,094	5,27
817,27	-42,8
817,445	34,12
817,621	-17,96
817,796	34,52
817,972	-29,98
818,147	-29,58
818,322	-3,14
818,498	111,83
818,673	32,91
818,849	-15,56
819,024	-50,81
819,199	28,11
819,375	27,31
819,55	35,32
819,725	15,29
819,9	18,89
820,076	38,12
820,251	-47,6
820,426	97,01
820,601	83,79
820,776	21,3
820,952	24,1
821,127	26,91
821,302	41,73
821,477	16,49
821,652	-13,95
821,827	36,12
822,002	-16,36
822,177	-48,4
822,352	16,49
822,527	4,07
822,702	-49,61
822,877	4,07
823,052	45,33
823,227	22,5
823,402	3,67
823,577	60,96
823,752	26,1
823,927	-51,61
824,102	102,21
824,277	70,17
824,451	0,47
824,626	-25,17
824,801	-5,54
824,976	72,57
825,151	-15,96
825,325	33,72
825,5	10,08
825,675	14,09
825,85	34,12
826,024	70,17
826,199	-5,54
826,374	14,89
826,548	47,74
826,723	61,76
826,897	3,67
827,072	10,08
827,247	-3,14
827,421	-38,79
827,596	-2,74
827,77	-4,34
827,945	25,7
828,119	24,5
828,294	25,7
828,468	-2,34
828,643	-16,36
828,817	0,47
828,992	-10,35
829,166	-57,62
829,34	46,53
829,515	18,09
829,689	17,69
829,864	16,89
830,038	36,92
830,212	56,15
830,386	-30,78
830,561	74,98
830,735	-7,14
830,909	69,37
831,084	-11,15
831,258	14,09
831,432	34,92
831,606	-6,34
831,78	-49,61
831,954	40,93
832,129	25,3
832,303	28,11
832,477	11,28
832,651	54,15
832,825	-42,8
832,999	79,38
833,173	-52,01
833,347	1,27
833,521	0,47
833,695	54,15
833,869	-3,54
834,043	-9,55
834,217	-15,16
834,391	-8,75
834,565	-4,74
834,739	-1,13
834,913	0,07
835,086	-22,37
835,26	-55,21
835,434	-33,98
835,608	30,11
835,782	42,13
835,956	-18,76
836,129	-25,97
836,303	66,16
836,477	-22,37
836,651	26,51
836,824	59,75
836,998	-21,16
837,172	12,48
837,345	101,41
837,519	-35,18
837,693	-9,15
837,866	-27,57
838,04	-13,95
838,213	-34,38
838,387	-21,56
838,56	-37,19
838,734	-18,36
838,907	76,58
839,081	14,09
839,254	11,68
839,428	-30,78
839,601	54,55
839,775	-56,42
839,948	20,5
840,122	19,7
840,295	-0,73
840,468	-10,75
840,642	9,68
840,815	-25,57
840,988	-46,8
841,162	-19,96
841,335	19,7
841,508	54,15
841,682	-2,34
841,855	30,51
842,028	37,32
842,201	28,11
842,374	-25,97
842,548	46,13
842,721	52,14
842,894	-0,33
843,067	-113,3
843,24	-25,17
843,413	-39,99
843,586	-11,55
843,759	-4,34
843,932	-11,15
844,105	-7,94
844,278	-41,99
844,451	36,12
844,624	54,15
844,797	2,47
844,97	16,09
845,143	10,88
845,316	58,15
845,489	-48,8
845,662	-23,17
845,835	68,57
846,008	-30,38
846,18	-7,54
846,353	31,71
846,526	40,93
846,699	3,27
846,872	35,72
847,044	43,33
847,217	-11,95
847,39	-13,15
847,563	-5,54
847,735	0,07
847,908	49,74
848,081	-13,55
848,253	-17,96
848,426	-54,41
848,598	70,57
848,771	65,76
848,944	-82,05
849,116	-41,99
849,289	-20,36
849,461	9,28
849,634	-8,35
849,806	-29,98
849,979	-27,57
850,151	48,14
850,324	54,55
850,496	52,94
850,668	-56,82
850,841	-19,96
851,013	26,51
851,186	-1,94
851,358	-34,38
851,53	9,68
851,703	-3,54
851,875	-17,16
852,047	-19,16
852,219	-39,59
852,392	34,92
852,564	-3,94
852,736	-54,01
852,908	-69,63
853,081	69,37
853,253	-10,35
853,425	46,13
853,597	41,33
853,769	-31,58
853,941	30,51
854,113	-10,35
854,285	5,27
854,457	17,29
854,63	-12,75
854,802	62,96
854,974	-20,36
855,146	51,34
855,318	99,41
855,489	14,09
855,661	52,14
855,833	-22,37
856,005	72,97
856,177	-32,38
856,349	-46
856,521	-6,34
856,693	-81,25
856,865	-44,4
857,036	106,62
857,208	24,9
857,38	2,87
857,552	19,7
857,723	10,48
857,895	-37,99
858,067	-3,54
858,239	-11,15
858,41	-70,84
858,582	42,93
858,754	-8,75
858,925	-79,65
859,097	39,32
859,268	54,15
859,44	-9,55
859,612	10,08
859,783	-87,66
859,955	-5,94
860,126	-36,39
860,298	-48
860,469	48,54
860,641	-28,78
860,812	-24,77
860,983	-62,82
861,155	20,9
861,326	-0,33
861,498	-3,14
861,669	15,29
861,84	41,33
862,012	36,12
862,183	34,92
862,354	23,3
862,526	-30,78
862,697	34,52
862,868	-15,96
863,039	-50,41
863,211	-61,62
863,382	-17,16
863,553	-23,17
863,724	-29,18
863,895	-6,34
864,066	57,35
864,238	-12,75
864,409	30,11
864,58	-44,4
864,751	61,36
864,922	17,69
865,093	38,92
865,264	49,34
865,435	-70,03
865,606	10,08
865,777	-14,75
865,948	27,31
866,119	22,1
866,29	20,9
866,461	-27,97
866,632	-41,99
866,802	-19,96
866,973	-14,75
867,144	-25,57
867,315	14,09
867,486	37,32
867,657	38,52
867,827	51,74
867,998	55,75
868,169	-46
868,34	26,1
868,51	6,48
868,681	44,93
868,852	-5,14
869,022	37,72
869,193	47,74
869,364	-2,34
869,534	-15,16
869,705	17,69
869,875	20,1
870,046	26,1
870,217	-7,54
870,387	-13,15
870,558	39,72
870,728	6,88
870,899	-25,17
871,069	-58,02
871,239	45,73
871,41	-29,18
871,58	14,09
871,751	-28,78
871,921	-15,96
872,091	-25,17
872,262	-0,33
872,432	31,71
872,602	-76,44
872,773	-3,14
872,943	14,49
873,113	0,87
873,284	-45,2
873,454	-6,34
873,624	39,32
873,794	2,07
873,964	10,08
874,135	-13,55
874,305	-20,36
874,475	26,1
874,645	-51,21
874,815	27,31
874,985	11,68
875,155	-30,78
875,325	-17,56
875,495	15,29
875,665	14,09
875,835	7,28
876,005	-23,57
876,175	-27,57
876,345	-12,75
876,515	-47,2
876,685	64,16
876,855	68,17
877,025	-29,18
877,195	-91,67
877,365	-24,37
877,534	18,49
877,704	-21,56
877,874	65,76
878,044	-22,77
878,214	50,14
878,383	18,89
878,553	29,71
878,723	-27,17
878,892	40,93
879,062	-3,14
879,232	7,68
879,401	-8,35
879,571	20,9
879,741	-126,12
879,91	-4,74
880,08	18,49
880,249	-15,56
880,419	1,67
880,589	-21,97
880,758	32,51
880,928	36,12
881,097	-26,77
881,267	5,27
881,436	-32,78
881,605	14,09
881,775	-98,48
881,944	-16,76
882,114	74,57
882,283	-4,34
882,452	47,34
882,622	-14,35
882,791	-42,39
882,96	-11,15
883,13	32,51
883,299	33,72
883,468	-21,16
883,637	-48
883,807	20,1
883,976	-19,16
884,145	-19,16
884,314	-4,74
884,483	-16,36
884,652	-14,75
884,822	29,71
884,991	2,07
885,16	20,1
885,329	34,92
885,498	-29,18
885,667	46,53
885,836	26,1
886,005	-17,16
886,174	35,32
886,343	59,75
886,512	-7,54
886,681	14,09
886,85	57,35
887,019	30,91
887,187	-13,15
887,356	25,7
887,525	-54,81
887,694	11,68
887,863	-31,98
888,032	-27,97
888,2	12,89
888,369	-9,15
888,538	20,9
888,707	-21,16
888,875	-60,02
889,044	-55,21
889,213	58,55
889,381	-13,15
889,55	-5,94
889,719	5,27
889,887	24,5
890,056	-71,64
890,224	47,74
890,393	-29,98
890,562	30,91
890,73	-10,35
890,899	27,31
891,067	18,89
891,236	-29,58
891,404	94,2
891,573	-5,14
891,741	18,09
891,909	-4,34
892,078	60,55
892,246	3,67
892,415	-2,34
892,583	14,09
892,751	27,31
892,92	28,11
893,088	18,09
893,256	30,51
893,424	-31,58
893,593	32,11
893,761	-1,94
893,929	-33,98
894,097	0,07
894,265	-16,36
894,434	34,92
894,602	50,14
894,77	7,28
894,938	70,97
895,106	8,48
895,274	24,5
895,442	-10,35
895,61	43,73
895,778	-57,62
895,946	9,68
896,114	20,5
896,282	-49,2
896,45	-14,35
896,618	52,54
896,786	22,1
896,954	10,08
897,122	-9,55
897,29	11,28
897,458	23,3
897,625	40,93
897,793	54,95
897,961	43,33
898,129	-22,77
898,297	28,11
898,464	-24,37
898,632	3,67
898,8	50,94
898,968	-54,01
899,135	30,91
899,303	-20,76
899,471	-6,34
899,638	35,32
899,806	6,88
899,973	12,08
900,141	55,35
900,309	4,87
900,476	-5,54
900,644	28,91
900,811	4,07
900,979	18,09
901,146	14,89
901,314	23,3
901,481	-12,75
901,649	52,14
901,816	26,51
901,983	44,93
902,151	-2,34
