Data from Subt4__3__14-35-26-144.txt Node

Date: Thu Feb 19 14:35:26 CET 2026
User: Versuch 234
Spectrometer: USB4F05580
Trigger mode: 4
Integration Time (sec): 7,500000E-2
Scans to average: 5
Electric dark correction enabled: true
Nonlinearity correction enabled: false
Boxcar width: 0
XAxis mode: Wavelengths
Number of Pixels in Spectrum: 3648
>>>>>Begin Spectral Data<<<<<
197,409	11,32
197,623	11,32
197,837	11,32
198,051	77,01
198,265	1,3
198,479	-55,98
198,693	6,51
198,907	-28,34
199,122	-1,1
199,336	-0,3
199,55	12,92
199,763	52,18
199,977	6,51
200,191	21,73
200,405	-9,51
200,619	13,72
200,833	-18,33
201,047	6,51
201,261	28,54
201,475	37,75
201,689	20,13
201,903	0,1
202,117	-32,75
202,331	-21,53
202,545	-9,51
202,758	29,74
202,972	-39,56
203,186	-87,63
203,4	29,34
203,614	21,73
203,828	-35,15
204,041	1,3
204,255	-0,7
204,469	22,53
204,683	40,56
204,897	-15,12
205,11	36,15
205,324	-45,17
205,538	26,94
205,752	-23,13
205,965	28,54
206,179	28,54
206,393	-118,47
206,606	7,71
206,82	-23,53
207,034	0,5
207,248	6,91
207,461	-0,7
207,675	-22,73
207,889	12,12
208,102	46,17
208,316	-20,33
208,529	-41,96
208,743	-25,54
208,957	-1,9
209,17	-28,74
209,384	3,71
209,597	-24,34
209,811	36,55
210,025	43,76
210,238	-1,9
210,452	-12,32
210,665	33,75
210,879	20,93
211,092	-18,73
211,306	11,72
211,519	-94,44
211,733	-18,73
211,946	52,18
212,16	28,54
212,373	-29,14
212,587	-1,5
212,8	-16,32
213,014	-31,15
213,227	14,52
213,44	4,11
213,654	86,63
213,867	34,55
214,081	28,14
214,294	10,11
214,507	59,79
214,721	36,15
214,934	36,15
215,148	8,11
215,361	91,83
215,574	49,37
215,788	-84,02
216,001	70,2
216,214	-10,72
216,428	8,51
216,641	-3,91
216,854	13,32
217,067	-29,54
217,281	19,73
217,494	30,94
217,707	47,37
217,92	-52,78
218,134	10,52
218,347	44,56
218,56	38,16
218,773	-74,41
218,986	56,98
219,2	-0,7
219,413	-18,73
219,626	-27,54
219,839	52,58
220,052	27,34
220,265	-43,56
220,479	9,71
220,692	13,72
220,905	15,32
221,118	36,55
221,331	-36,35
221,544	31,75
221,757	54,98
221,97	22,53
222,183	-70,8
222,396	-0,3
222,609	31,35
222,822	-38,36
223,035	17,73
223,249	14,52
223,462	16,12
223,675	-61,59
223,887	42,56
224,1	28,94
224,313	-0,3
224,526	30,54
224,739	-18,73
224,952	46,57
225,165	2,1
225,378	24,54
225,591	90,63
225,804	18,93
226,017	44,97
226,23	35,35
226,443	-12,32
226,656	-36,75
226,868	-78,81
227,081	56,18
227,294	-45,57
227,507	37,75
227,72	-41,96
227,933	33,35
228,145	9,31
228,358	-37,55
228,571	-4,71
228,784	-43,16
228,997	-54,78
229,209	-4,31
229,422	22,53
229,635	13,72
229,848	-9,11
230,06	-34,75
230,273	-47,97
230,486	5,71
230,698	-46,77
230,911	-25,54
231,124	-13,92
231,336	-19,13
231,549	3,71
231,762	36,15
231,974	-86,83
232,187	-104,45
232,4	10,52
232,612	-35,95
232,825	-8,31
233,038	2,5
233,25	50,97
233,463	13,32
233,675	-30,34
233,888	20,13
234,1	71,8
234,313	37,75
234,526	-16,32
234,738	-11,52
234,951	-6,71
235,163	-31,55
235,376	23,33
235,588	-86,02
235,801	-17,53
236,013	-56,38
236,226	37,35
236,438	20,13
236,65	36,15
236,863	-42,36
237,075	53,38
237,288	-2,7
237,5	-47,97
237,713	-29,54
237,925	-49,17
238,137	-15,92
238,35	-2,3
238,562	-5,51
238,774	34,55
238,987	128,29
239,199	-22,33
239,411	-12,72
239,624	4,51
239,836	22,53
240,048	-10,72
240,261	33,35
240,473	9,71
240,685	10,52
240,897	-49,57
241,11	-29,14
241,322	69,8
241,534	-15,12
241,746	-15,92
241,959	37,35
242,171	-3,1
242,383	-17,53
242,595	-57,98
242,807	4,51
243,02	18,93
243,232	24,94
243,444	-32,75
243,656	24,94
243,868	35,35
244,08	-34,35
244,293	-63,19
244,505	5,71
244,717	-13,12
244,929	-50,37
245,141	-21,13
245,353	16,12
245,565	2,5
245,777	30,14
245,989	-39,96
246,201	-39,16
246,413	-0,3
246,625	-15,52
246,837	-33,55
247,049	12,52
247,261	35,75
247,473	-41,56
247,685	32,55
247,897	39,36
248,109	-34,75
248,321	45,77
248,533	-111,66
248,745	-21,93
248,957	8,91
249,169	-27,14
249,381	26,94
249,593	1,7
249,804	51,78
250,016	23,33
250,228	-80,02
250,44	42,96
250,652	-27,14
250,864	32,15
251,075	-49,17
251,287	-14,72
251,499	14,92
251,711	22,53
251,923	20,13
252,134	10,92
252,346	-28,34
252,558	47,77
252,77	-9,91
252,982	-19,93
253,193	-7,91
253,405	-39,56
253,617	6,91
253,828	-57,18
254,04	50,97
254,252	77,81
254,463	32,55
254,675	-39,16
254,887	-55,18
255,098	-25,14
255,31	-45,57
255,522	43,36
255,733	0,5
255,945	66,2
256,157	-7,11
256,368	-21,53
256,58	43,36
256,791	-31,95
257,003	15,32
257,214	27,34
257,426	21,33
257,637	-41,56
257,849	-11,12
258,061	58,18
258,272	12,52
258,484	25,34
258,695	11,72
258,907	5,71
259,118	-5,91
259,329	-40,36
259,541	-22,73
259,752	34,55
259,964	62,19
260,175	-52,38
260,387	-88,83
260,598	16,92
260,809	-29,94
261,021	-6,31
261,232	-31,55
261,444	0,9
261,655	44,56
261,866	-3,1
262,078	-11,92
262,289	4,91
262,5	-25,14
262,712	-22,73
262,923	4,91
263,134	-31,15
263,345	25,74
263,557	-96,44
263,768	-85,22
263,979	-47,57
264,191	-30,74
264,402	-59,99
264,613	14,92
264,824	-29,14
265,035	-25,94
265,247	28,94
265,458	-34,35
265,669	-31,55
265,88	4,51
266,091	-3,1
266,302	8,91
266,514	-6,71
266,725	2,1
266,936	-17,53
267,147	-61,99
267,358	-3,51
267,569	9,71
267,78	30,54
267,991	-30,34
268,202	69,8
268,414	16,52
268,625	27,74
268,836	-78,81
269,047	54,18
269,258	-15,92
269,469	-44,76
269,68	30,94
269,891	-33,55
270,102	50,97
270,313	-0,7
270,524	-26,74
270,735	-15,12
270,945	26,94
271,156	60,99
271,367	20,53
271,578	12,12
271,789	-83,62
272	36,55
272,211	21,33
272,422	-52,78
272,633	20,53
272,844	-53,58
273,054	-53,58
273,265	-10,31
273,476	-7,11
273,687	-46,37
273,898	-40,36
274,109	-27,54
274,319	-35,55
274,53	80,62
274,741	66,6
274,952	-44,36
275,162	44,97
275,373	35,35
275,584	-28,34
275,795	-41,96
276,005	-19,13
276,216	-19,13
276,427	-3,51
276,637	-26,34
276,848	-57,98
277,059	-82,82
277,269	-34,75
277,48	-1,9
277,691	8,11
277,901	-14,32
278,112	-7,51
278,323	-12,72
278,533	-12,32
278,744	-48,77
278,954	-50,77
279,165	8,51
279,376	1,3
279,586	-49,57
279,797	-21,53
280,007	-11,92
280,218	-15,92
280,428	52,58
280,639	16,52
280,849	-22,73
281,06	-15,92
281,27	-54,38
281,481	-28,34
281,691	-25,14
281,902	-29,94
282,112	-19,13
282,322	61,39
282,533	-29,14
282,743	4,11
282,954	18,13
283,164	-1,9
283,374	7,71
283,585	83,42
283,795	-61,19
284,006	0,1
284,216	-23,53
284,426	30,54
284,637	-21,13
284,847	-49,97
285,057	29,34
285,268	28,94
285,478	-38,76
285,688	30,54
285,898	-32,75
286,109	-3,1
286,319	-19,53
286,529	20,93
286,739	-42,36
286,95	33,35
287,16	25,74
287,37	92,63
287,58	-45,57
287,79	25,74
288,001	34,15
288,211	19,33
288,421	26,54
288,631	13,32
288,841	-24,74
289,051	16,12
289,261	-5,11
289,471	-77,21
289,682	-18,73
289,892	11,32
290,102	-34,35
290,312	-23,93
290,522	-27,54
290,732	35,75
290,942	17,33
291,152	12,52
291,362	19,73
291,572	-47,57
291,782	23,73
291,992	57,78
292,202	-9,51
292,412	-53,18
292,622	-9,51
292,832	38,16
293,042	-7,91
293,252	-3,91
293,462	18,93
293,672	-44,76
293,881	20,53
294,091	-39,96
294,301	-61,19
294,511	28,94
294,721	109,46
294,931	64,19
295,141	-43,56
295,35	6,51
295,56	-19,13
295,77	-36,75
295,98	-37,15
296,19	15,72
296,4	-4,31
296,609	-36,35
296,819	32,95
297,029	7,31
297,239	1,3
297,448	49,37
297,658	-14,72
297,868	56,18
298,077	-19,13
298,287	2,1
298,497	-11,52
298,706	8,11
298,916	-70
299,126	7,71
299,335	-11,52
299,545	46,57
299,755	-14,32
299,964	-4,71
300,174	85,82
300,384	42,56
300,593	27,34
300,803	-37,96
301,012	-19,13
301,222	7,31
301,431	-21,53
301,641	18,53
301,851	33,35
302,06	21,73
302,27	-9,91
302,479	19,33
302,689	22,13
302,898	-48,37
303,107	17,33
303,317	18,93
303,526	87,43
303,736	70,6
303,945	38,56
304,155	-47,57
304,364	21,33
304,574	13,32
304,783	-27,54
304,992	-6,71
305,202	-30,74
305,411	-3,91
305,62	9,31
305,83	30,14
306,039	-9,51
306,248	34,15
306,458	-21,93
306,667	-76,01
306,876	-26,74
307,086	18,93
307,295	-15,92
307,504	-11,92
307,713	-25,94
307,923	-96,44
308,132	13,72
308,341	-14,32
308,55	-3,1
308,76	-57,98
308,969	20,53
309,178	10,52
309,387	8,51
309,596	-50,37
309,805	18,13
310,015	3,3
310,224	-20,73
310,433	-49,97
310,642	-43,16
310,851	-28,34
311,06	15,72
311,269	11,32
311,478	-37,55
311,687	-61,19
311,896	-13,12
312,106	31,35
312,315	51,78
312,524	62,19
312,733	81,02
312,942	-25,94
313,151	67,4
313,36	-25,54
313,569	52,58
313,778	-2,3
313,987	-29,54
314,195	45,77
314,404	34,95
314,613	15,72
314,822	51,78
315,031	-18,73
315,24	-43,96
315,449	84,62
315,658	-50,77
315,867	-6,71
316,076	-21,53
316,284	42,16
316,493	49,37
316,702	-1,1
316,911	40,96
317,12	-33,15
317,329	48,57
317,537	40,96
317,746	-104,05
317,955	34,55
318,164	44,16
318,372	-21,53
318,581	55,78
318,79	-1,5
318,999	9,31
319,207	-17,12
319,416	-96,04
319,625	-4,31
319,833	-5,11
320,042	16,52
320,251	-1,9
320,459	-39,96
320,668	-11,52
320,877	62,59
321,085	-25,94
321,294	-65,6
321,502	-23,93
321,711	-22,73
321,92	0,1
322,128	-29,94
322,337	-25,54
322,545	55,38
322,754	54,58
322,962	38,56
323,171	-53,18
323,379	-49,97
323,588	-26,74
323,796	-51,98
324,005	-19,13
324,213	1,3
324,422	58,58
324,63	-57,58
324,839	-27,54
325,047	-40,76
325,256	-31,15
325,464	32,15
325,672	28,94
325,881	0,9
326,089	-4,31
326,297	10,11
326,506	-47,97
326,714	48,97
326,923	-18,73
327,131	-9,51
327,339	-6,71
327,548	22,53
327,756	-32,35
327,964	-12,32
328,172	5,31
328,381	28,94
328,589	-0,7
328,797	-11,12
329,005	10,92
329,214	-59,59
329,422	15,72
329,63	-24,74
329,838	109,46
330,046	0,5
330,255	18,53
330,463	-1,5
330,671	-40,36
330,879	70,2
331,087	-3,91
331,295	8,51
331,503	-3,51
331,712	13,32
331,92	-9,91
332,128	21,33
332,336	59,79
332,544	-47,17
332,752	-20,33
332,96	0,9
333,168	-13,52
333,376	-134,49
333,584	-10,31
333,792	25,34
334	-0,7
334,208	24,13
334,416	36,15
334,624	-41,96
334,832	-10,72
335,04	-23,13
335,248	13,72
335,456	18,13
335,664	-40,76
335,872	-7,51
336,08	-82,02
336,287	-34,35
336,495	73,41
336,703	1,7
336,911	16,92
337,119	-14,32
337,327	18,93
337,535	28,14
337,742	-28,74
337,95	26,14
338,158	-0,7
338,366	-45,57
338,573	-36,75
338,781	-30,74
338,989	67,4
339,197	33,75
339,404	-27,94
339,612	-10,72
339,82	-26,74
340,028	-16,72
340,235	65,8
340,443	-11,12
340,651	-5,91
340,858	-107,66
341,066	-65,6
341,274	15,72
341,481	36,15
341,689	32,15
341,896	-62,39
342,104	44,56
342,312	15,72
342,519	39,36
342,727	14,52
342,934	-36,35
343,142	-1,5
343,349	-23,93
343,557	93,44
343,765	-32,75
343,972	31,75
344,18	-6,31
344,387	19,73
344,594	15,72
344,802	97,04
345,009	-17,93
345,217	-18,33
345,424	55,38
345,632	-66
345,839	24,54
346,047	-34,35
346,254	-39,96
346,461	22,13
346,669	-11,52
346,876	31,35
347,083	27,34
347,291	4,91
347,498	3,3
347,705	14,12
347,913	-19,93
348,12	-1,1
348,327	-41,96
348,535	-22,73
348,742	16,92
348,949	-16,72
349,156	-8,71
349,364	-37,15
349,571	-20,33
349,778	5,71
349,985	-33,15
350,192	26,94
350,4	27,34
350,607	7,31
350,814	16,92
351,021	-15,52
351,228	2,9
351,435	5,31
351,643	0,9
351,85	14,92
352,057	24,94
352,264	29,34
352,471	-1,5
352,678	58,18
352,885	16,92
353,092	-4,71
353,299	-5,91
353,506	-7,51
353,713	36,15
353,92	-67,2
354,127	34,15
354,334	-4,31
354,541	-7,91
354,748	23,33
354,955	63,39
355,162	64,99
355,369	-25,14
355,576	32,95
355,783	39,76
355,99	-32,75
356,197	-45,57
356,404	-2,3
356,611	-11,52
356,817	-54,38
357,024	2,1
357,231	9,71
357,438	18,53
357,645	7,71
357,852	-3,51
358,058	50,97
358,265	17,73
358,472	12,52
358,679	-2,7
358,885	-21,93
359,092	45,37
359,299	-71,2
359,506	4,51
359,712	-1,5
359,919	5,31
360,126	-33,55
360,333	-82,02
360,539	25,34
360,746	-3,51
360,953	42,96
361,159	-29,94
361,366	-66
361,572	21,73
361,779	6,11
361,986	-20,73
362,192	-37,96
362,399	28,14
362,605	-29,94
362,812	-37,15
363,019	-26,34
363,225	-4,71
363,432	43,76
363,638	-73,61
363,845	9,71
364,051	15,72
364,258	-4,71
364,464	66,6
364,671	-25,94
364,877	36,15
365,084	31,75
365,29	-28,34
365,496	40,16
365,703	-4,31
365,909	-7,51
366,116	8,11
366,322	-21,93
366,528	-31,15
366,735	-4,71
366,941	-29,54
367,147	18,53
367,354	64,59
367,56	14,52
367,766	38,96
367,973	58,18
368,179	-11,12
368,385	4,51
368,592	37,35
368,798	58,58
369,004	-25,54
369,21	-41,16
369,417	23,33
369,623	-41,96
369,829	9,71
370,035	13,32
370,241	35,75
370,448	-39,96
370,654	16,12
370,86	-28,34
371,066	-7,91
371,272	28,54
371,478	0,5
371,684	16,12
371,891	-3,51
372,097	1,3
372,303	-32,35
372,509	-19,93
372,715	-56,78
372,921	-0,7
373,127	20,13
373,333	36,15
373,539	-45,17
373,745	42,56
373,951	11,72
374,157	-9,11
374,363	-15,52
374,569	29,34
374,775	-17,12
374,981	-23,53
375,187	-41,56
375,393	-4,71
375,599	21,73
375,804	-1,9
376,01	27,74
376,216	25,34
376,422	-19,13
376,628	43,36
376,834	4,91
377,04	16,12
377,246	4,11
377,451	-22,73
377,657	-13,52
377,863	8,51
378,069	-59,19
378,274	35,75
378,48	31,75
378,686	58,18
378,892	29,74
379,097	4,51
379,303	14,52
379,509	-29,54
379,715	48,17
379,92	22,93
380,126	15,72
380,332	-37,96
380,537	-1,1
380,743	67
380,949	-2,7
381,154	-5,11
381,36	-34,75
381,565	-8,71
381,771	-6,31
381,977	-10,72
382,182	0,5
382,388	22,53
382,593	10,92
382,799	49,77
383,004	-21,93
383,21	11,32
383,415	-64,79
383,621	-9,51
383,826	-0,3
384,032	24,54
384,237	-46,37
384,443	-3,1
384,648	-64,79
384,854	97,04
385,059	-39,56
385,265	3,71
385,47	-12,32
385,675	16,92
385,881	39,36
386,086	-40,76
386,291	-40,76
386,497	25,34
386,702	-58,38
386,907	-16,72
387,113	-39,56
387,318	39,76
387,523	-24,74
387,729	45,37
387,934	42,96
388,139	-0,3
388,344	-14,32
388,55	58,18
388,755	-27,54
388,96	24,94
389,165	88,23
389,371	28,54
389,576	-45,57
389,781	43,36
389,986	-31,55
390,191	36,55
390,396	-83,22
390,601	27,34
390,807	-18,33
391,012	48,57
391,217	-17,93
391,422	-3,51
391,627	-14,32
391,832	-94,04
392,037	74,61
392,242	77,81
392,447	2,1
392,652	-7,51
392,857	40,56
393,062	-21,53
393,267	15,72
393,472	-17,93
393,677	36,15
393,882	2,9
394,087	12,52
394,292	53,78
394,497	4,91
394,702	-5,11
394,907	41,36
395,112	1,3
395,317	-23,13
395,521	-24,74
395,726	-20,73
395,931	-11,92
396,136	19,33
396,341	-53,98
396,546	-31,15
396,75	-23,13
396,955	-1,1
397,16	-51,98
397,365	16,12
397,57	24,54
397,774	-32,35
397,979	-1,9
398,184	-88,03
398,389	57,38
398,593	28,14
398,798	-27,94
399,003	-18,33
399,207	-47,57
399,412	-54,38
399,617	-32,35
399,821	-80,82
400,026	97,84
400,231	54,98
400,435	0,5
400,64	-23,53
400,844	-60,39
401,049	30,14
401,254	-15,12
401,458	-6,31
401,663	-36,35
401,867	41,76
402,072	-11,52
402,276	9,31
402,481	-16,72
402,685	7,31
402,89	-20,33
403,094	78,21
403,299	-3,1
403,503	71,4
403,708	-63,99
403,912	-20,33
404,116	-45,17
404,321	44,16
404,525	-23,93
404,73	34,15
404,934	44,16
405,138	-5,91
405,343	75,81
405,547	-13,92
405,751	-2,7
405,956	0,1
406,16	12,52
406,364	34,15
406,569	-14,32
406,773	-49,17
406,977	-29,14
407,181	-91,23
407,386	31,75
407,59	-22,33
407,794	-25,54
407,998	-38,36
408,202	-35,15
408,407	-19,93
408,611	-17,12
408,815	-21,93
409,019	-54,38
409,223	-17,53
409,427	-7,91
409,632	72,2
409,836	43,36
410,04	-26,34
410,244	-1,5
410,448	-57,58
410,652	29,74
410,856	-73,21
411,06	16,52
411,264	46,57
411,468	-7,51
411,672	-35,95
411,876	61,79
412,08	-16,32
412,284	1,7
412,488	-28,74
412,692	64,99
412,896	-2,3
413,1	18,93
413,304	-43,16
413,508	40,56
413,712	-25,54
413,916	-7,51
414,12	18,93
414,323	-9,91
414,527	-11,12
414,731	-13,92
414,935	36,15
415,139	45,37
415,343	3,3
415,546	63,39
415,75	1,7
415,954	33,75
416,158	-59,59
416,361	-61,99
416,565	-31,95
416,769	28,54
416,973	-15,12
417,176	39,36
417,38	-64,79
417,584	-13,92
417,788	47,77
417,991	-12,32
418,195	-66,8
418,398	38,96
418,602	14,92
418,806	-4,31
419,009	-12,72
419,213	53,38
419,417	8,11
419,62	10,52
419,824	25,34
420,027	-13,92
420,231	-62,79
420,434	-45,57
420,638	-7,91
420,841	60,59
421,045	-0,7
421,248	1,3
421,452	13,32
421,655	-9,51
421,859	28,54
422,062	-13,92
422,266	6,51
422,469	-5,51
422,673	-7,11
422,876	7,71
423,079	-22,33
423,283	-25,54
423,486	34,15
423,689	-37,96
423,893	34,95
424,096	114,67
424,299	94,24
424,503	-5,11
424,706	-9,11
424,909	-16,32
425,113	1,7
425,316	8,91
425,519	33,75
425,722	21,73
425,926	-7,51
426,129	6,11
426,332	14,12
426,535	9,31
426,739	-54,78
426,942	4,51
427,145	12,92
427,348	17,73
427,551	1,7
427,754	28,54
427,957	-11,12
428,161	26,54
428,364	24,94
428,567	-17,12
428,77	-39,96
428,973	-6,71
429,176	-21,13
429,379	36,55
429,582	-76,01
429,785	3,3
429,988	-13,52
430,191	50,97
430,394	-32,75
430,597	-30,74
430,8	44,16
431,003	34,95
431,206	-68
431,409	-23,53
431,612	-53,98
431,815	52,98
432,018	16,52
432,221	-30,34
432,423	56,58
432,626	-68
432,829	24,94
433,032	95,04
433,235	38,16
433,438	-57,98
433,64	-71,6
433,843	81,42
434,046	10,11
434,249	-58,38
434,452	-5,51
434,654	-68,4
434,857	-31,55
435,06	-62,79
435,263	29,34
435,465	-33,55
435,668	-41,96
435,871	116,67
436,073	3,3
436,276	-42,36
436,479	-20,33
436,681	59,79
436,884	31,75
437,087	3,71
437,289	22,53
437,492	19,33
437,694	49,37
437,897	-31,55
438,1	30,54
438,302	-27,54
438,505	23,33
438,707	-38,36
438,91	19,73
439,112	10,52
439,315	52,18
439,517	31,35
439,72	3,3
439,922	-31,55
440,125	-0,7
440,327	-34,35
440,529	-17,93
440,732	-8,31
440,934	-16,32
441,137	-25,94
441,339	-44,36
441,541	-46,37
441,744	37,35
441,946	-20,33
442,148	13,72
442,351	-7,51
442,553	-27,14
442,755	-76,81
442,958	-54,38
443,16	-43,96
443,362	-7,11
443,565	2,9
443,767	-11,92
443,969	-36,35
444,171	39,76
444,373	2,1
444,576	-29,94
444,778	-28,34
444,98	-46,77
445,182	26,54
445,384	-40,76
445,586	54,98
445,789	54,18
445,991	-13,92
446,193	61,79
446,395	0,9
446,597	-0,7
446,799	12,52
447,001	4,11
447,203	-9,91
447,405	-57,18
447,607	-8,71
447,809	-1,9
448,011	-67,2
448,213	-5,51
448,415	-82,82
448,617	26,54
448,819	-73,21
449,021	-83,22
449,223	79,42
449,425	52,58
449,627	17,73
449,829	-63,19
450,031	-22,73
450,233	27,74
450,435	-11,92
450,636	4,51
450,838	14,12
451,04	-5,91
451,242	-5,91
451,444	-6,31
451,646	2,5
451,847	-4,71
452,049	21,73
452,251	41,76
452,453	17,33
452,654	-19,93
452,856	10,52
453,058	17,33
453,26	-7,91
453,461	-51,57
453,663	-51,98
453,865	4,11
454,066	-25,94
454,268	-25,94
454,47	64,59
454,671	-4,71
454,873	-17,93
455,074	-39,96
455,276	-22,33
455,478	26,54
455,679	57,38
455,881	34,15
456,082	12,52
456,284	4,11
456,485	47,37
456,687	28,14
456,888	5,71
457,09	-6,31
457,291	34,95
457,493	-40,36
457,694	-20,73
457,896	-31,15
458,097	33,35
458,299	-7,91
458,5	0,5
458,701	-56,38
458,903	51,37
459,104	-10,31
459,306	32,15
459,507	48,57
459,708	-27,94
459,91	29,34
460,111	16,12
460,312	-13,92
460,514	31,35
460,715	53,38
460,916	-3,51
461,117	5,71
461,319	-26,74
461,52	-38,36
461,721	2,1
461,922	-17,93
462,124	25,34
462,325	-19,93
462,526	-8,71
462,727	-35,15
462,928	44,16
463,129	38,16
463,331	12,52
463,532	-30,74
463,733	-10,31
463,934	20,93
464,135	-28,34
464,336	-52,38
464,537	10,52
464,738	-48,77
464,939	-16,32
465,14	32,95
465,341	37,35
465,542	-49,17
465,743	17,73
465,944	60,59
466,145	-24,74
466,346	-5,11
466,547	70,2
466,748	-33,55
466,949	-37,15
467,15	15,72
467,351	-17,53
467,552	7,71
467,753	16,92
467,953	-3,51
468,154	-8,71
468,355	12,52
468,556	-78,01
468,757	23,33
468,958	-35,15
469,158	-10,31
469,359	22,53
469,56	26,14
469,761	4,51
469,962	32,15
470,162	23,73
470,363	-57,98
470,564	21,33
470,764	-1,5
470,965	24,13
471,166	12,12
471,366	-34,35
471,567	-114,07
471,768	-14,32
471,968	-42,36
472,169	15,32
472,37	4,91
472,57	-23,53
472,771	20,93
472,971	-16,72
473,172	4,91
473,373	12,12
473,573	-12,72
473,774	-7,11
473,974	36,15
474,175	-4,71
474,375	20,53
474,576	42,56
474,776	-19,13
474,977	-10,31
475,177	24,94
475,377	-0,3
475,578	-62,39
475,778	-22,73
475,979	6,11
476,179	-7,11
476,379	29,74
476,58	-21,53
476,78	7,71
476,981	36,15
477,181	-17,53
477,381	15,72
477,582	22,53
477,782	-13,92
477,982	10,52
478,182	13,32
478,383	104,65
478,583	83,02
478,783	-61,99
478,983	47,37
479,184	56,58
479,384	6,11
479,584	-0,3
479,784	30,54
479,984	109,46
480,184	-59,99
480,385	-17,93
480,585	60,59
480,785	-28,34
480,985	-17,12
481,185	45,37
481,385	35,75
481,585	62,99
481,785	73,01
481,985	-63,99
482,185	55,38
482,385	34,15
482,585	-9,11
482,785	2,9
482,985	9,71
483,185	48,57
483,385	65,8
483,585	19,73
483,785	5,71
483,985	25,74
484,185	41,36
484,385	-16,72
484,585	1,3
484,785	34,55
484,985	50,57
485,185	39,76
485,384	37,35
485,584	39,76
485,784	28,54
485,984	-6,31
486,184	-2,3
486,383	-25,14
486,583	37,35
486,783	-49,57
486,983	-31,55
487,183	-36,35
487,382	44,16
487,582	-44,36
487,782	25,34
487,981	55,78
488,181	-34,75
488,381	-55,18
488,58	-43,16
488,78	24,94
488,98	9,71
489,179	-82,02
489,379	-49,57
489,579	-7,11
489,778	37,75
489,978	67,4
490,177	-73,21
490,377	-25,14
490,576	-20,73
490,776	13,72
490,975	13,32
491,175	-15,92
491,374	29,74
491,574	43,36
491,773	22,13
491,973	-8,31
492,172	17,73
492,372	29,34
492,571	44,56
492,771	35,35
492,97	5,31
493,169	20,13
493,369	22,13
493,568	-15,52
493,767	4,91
493,967	41,36
494,166	-1,1
494,365	56,98
494,565	-8,31
494,764	2,5
494,963	-46,37
495,163	75,81
495,362	26,14
495,561	44,16
495,76	91,83
495,959	-41,96
496,159	34,55
496,358	21,33
496,557	67,8
496,756	-52,78
496,955	-34,75
497,155	84,62
497,354	-2,3
497,553	46,97
497,752	22,53
497,951	8,11
498,15	28,54
498,349	9,31
498,548	4,91
498,747	-5,91
498,946	-7,91
499,145	-48,37
499,344	3,71
499,543	11,32
499,742	-20,73
499,941	2,1
500,14	6,51
500,339	-72,81
500,538	17,73
500,737	28,14
500,936	42,56
501,135	12,52
501,334	30,14
501,533	30,14
501,732	54,98
501,931	-41,96
502,129	-43,96
502,328	-1,5
502,527	-27,94
502,726	-4,31
502,925	-23,93
503,123	69,8
503,322	10,11
503,521	43,36
503,72	25,74
503,919	11,32
504,117	53,78
504,316	6,51
504,515	-4,31
504,713	-7,51
504,912	-9,91
505,111	62,59
505,309	-5,51
505,508	-17,93
505,707	55,38
505,905	-34,35
506,104	50,57
506,302	57,78
506,501	41,76
506,7	39,36
506,898	3,71
507,097	-11,12
507,295	-13,52
507,494	-4,71
507,692	60,19
507,891	73,01
508,089	26,94
508,288	-101,25
508,486	16,12
508,685	-30,34
508,883	58,58
509,082	31,75
509,28	119,47
509,478	30,54
509,677	25,74
509,875	77,41
510,073	40,56
510,272	35,75
510,47	47,77
510,669	30,14
510,867	16,92
511,065	51,37
511,263	26,94
511,462	50,57
511,66	36,55
511,858	8,11
512,056	20,53
512,255	28,54
512,453	9,31
512,651	2,9
512,849	85,02
513,048	52,98
513,246	53,38
513,444	30,14
513,642	62,19
513,84	-13,12
514,038	-11,12
514,236	-19,13
514,435	62,19
514,633	-34,75
514,831	11,72
515,029	-19,93
515,227	40,96
515,425	22,93
515,623	-56,78
515,821	-8,31
516,019	4,11
516,217	-47,57
516,415	27,74
516,613	46,57
516,811	33,35
517,009	40,56
517,207	56,18
517,405	99,04
517,602	-13,52
517,8	55,78
517,998	-3,91
518,196	35,75
518,394	103,05
518,592	16,52
518,79	-17,53
518,987	50,57
519,185	60,59
519,383	38,16
519,581	40,56
519,779	72,2
519,976	38,56
520,174	12,52
520,372	27,74
520,57	83,82
520,767	60,19
520,965	124,68
521,163	36,15
521,36	73,01
521,558	104,25
521,756	67,4
521,953	118,67
522,151	103,85
522,349	73,01
522,546	73,41
522,744	105,45
522,941	93,84
523,139	91,43
523,336	214,81
523,534	210,81
523,731	77,81
523,929	97,04
524,126	143,11
524,324	44,16
524,521	125,88
524,719	137,9
524,916	155,53
525,114	95,44
525,311	187,97
525,509	105,05
525,706	155,12
525,903	99,44
526,101	192,38
526,298	187,97
526,496	121,48
526,693	116,27
526,89	248,46
527,088	194,38
527,285	140,3
527,482	174,35
527,679	155,93
527,877	147,91
528,074	224,02
528,271	247,26
528,468	271,29
528,666	250,86
528,863	338,59
529,06	359,02
529,257	412,3
529,454	427,12
529,652	489,21
529,849	624,2
530,046	683,49
530,243	1201,44
530,44	3759,95
530,637	15745,73
530,834	40554,09
531,031	55061,52
531,228	60789,82
531,425	63734,09
531,622	63897,13
531,819	64586,12
532,016	64644,21
532,213	64636,2
532,41	64531,65
532,607	34960,38
532,804	13597,81
533,001	5136,75
533,198	3328,12
533,395	2436,83
533,592	1561,56
533,789	1039,21
533,986	748,38
534,183	482,8
534,38	415,1
534,576	363,43
534,773	283,71
534,97	343
535,167	255,27
535,364	306,94
535,561	225,23
535,757	185,57
535,954	226,83
536,151	241,25
536,348	213,61
536,544	97,84
536,741	104,25
536,938	115,07
537,134	151,12
537,331	129,49
537,528	195,58
537,724	134,7
537,921	103,05
538,118	148,31
538,314	66,2
538,511	123,88
538,707	108,66
538,904	76,21
539,101	161,93
539,297	74,21
539,494	122,68
539,69	99,04
539,887	85,42
540,083	72,61
540,28	107,86
540,476	79,01
540,673	50,17
540,869	27,74
541,066	64,99
541,262	94,64
541,458	95,84
541,655	87,43
541,851	160,33
542,048	38,96
542,244	-4,31
542,44	8,11
542,637	33,75
542,833	40,56
543,029	22,93
543,226	31,75
543,422	83,82
543,618	77,81
543,814	10,52
544,011	-24,34
544,207	-11,92
544,403	81,82
544,599	7,71
544,796	13,32
544,992	-38,76
545,188	-32,35
545,384	33,35
545,58	40,16
545,776	0,5
545,972	48,97
546,169	31,75
546,365	24,13
546,561	59,79
546,757	-5,51
546,953	2,9
547,149	24,13
547,345	15,72
547,541	17,33
547,737	-14,32
547,933	42,96
548,129	-12,32
548,325	35,35
548,521	-39,16
548,717	-3,51
548,913	1,7
549,109	77,81
549,305	6,91
549,501	-4,31
549,697	12,92
549,892	42,56
550,088	8,51
550,284	-17,53
550,48	-7,91
550,676	52,58
550,872	39,36
551,067	7,31
551,263	44,56
551,459	39,36
551,655	24,13
551,85	-9,91
552,046	69
552,242	-9,11
552,438	-0,3
552,633	40,16
552,829	-38,76
553,025	84,62
553,22	-23,93
553,416	-49,17
553,612	-39,56
553,807	52,98
554,003	83,02
554,198	44,56
554,394	-71,6
554,59	14,12
554,785	-54,78
554,981	44,16
555,176	32,15
555,372	4,51
555,567	-7,91
555,763	86,22
555,958	-55,98
556,154	22,13
556,349	-2,7
556,545	-13,52
556,74	0,9
556,936	-47,97
557,131	-0,3
557,326	38,16
557,522	26,54
557,717	13,32
557,912	48,97
558,108	35,35
558,303	24,13
558,498	64,59
558,694	94,24
558,889	34,95
559,084	-61,19
559,28	44,97
559,475	-10,31
559,67	44,16
559,865	71,4
560,061	34,95
560,256	-41,16
560,451	-49,57
560,646	-46,77
560,841	-3,91
561,037	-90,83
561,232	-33,95
561,427	32,95
561,622	-23,13
561,817	12,92
562,012	-21,93
562,207	-45,97
562,402	-96,44
562,597	-3,91
562,792	-5,91
562,987	62,99
563,182	-0,7
563,377	-22,33
563,572	-25,14
563,767	64,59
563,962	23,73
564,157	-1,1
564,352	-18,73
564,547	-6,31
564,742	65,8
564,937	-49,57
565,132	-11,92
565,327	-11,52
565,522	-27,54
565,716	35,75
565,911	18,93
566,106	32,15
566,301	12,52
566,496	12,92
566,691	-19,93
566,885	73,81
567,08	-19,93
567,275	20,93
567,47	-18,73
567,664	-7,91
567,859	19,73
568,054	-5,51
568,248	-41,16
568,443	26,54
568,638	58,99
568,832	4,11
569,027	-11,12
569,222	-0,7
569,416	-25,94
569,611	-60,39
569,805	20,53
570	8,51
570,195	-11,12
570,389	-31,55
570,584	-13,12
570,778	25,34
570,973	44,16
571,167	18,93
571,362	44,97
571,556	23,33
571,751	-17,93
571,945	-51,98
572,139	7,71
572,334	-51,57
572,528	-13,12
572,723	17,33
572,917	-40,76
573,111	-23,53
573,306	-14,32
573,5	-24,34
573,694	20,93
573,889	45,77
574,083	12,52
574,277	22,93
574,472	36,95
574,666	50,57
574,86	-9,91
575,054	96,64
575,249	-28,74
575,443	3,71
575,637	33,75
575,831	8,51
576,025	69,8
576,219	9,71
576,414	19,33
576,608	11,72
576,802	-83,22
576,996	38,56
577,19	6,91
577,384	66,6
577,578	-54,38
577,772	-17,53
577,966	118,27
578,16	47,37
578,354	-26,34
578,548	7,31
578,742	18,93
578,936	-19,53
579,13	-28,74
579,324	49,37
579,518	4,91
579,712	21,33
579,906	-37,55
580,1	3,71
580,294	-24,74
580,488	-79,62
580,682	-1,5
580,875	28,14
581,069	-21,93
581,263	-88,03
581,457	61,79
581,651	22,93
581,845	-10,72
582,038	42,96
582,232	26,54
582,426	-11,92
582,62	-9,11
582,813	-63,59
583,007	-57,58
583,201	33,35
583,394	16,92
583,588	17,73
583,782	-27,14
583,975	33,75
584,169	-9,11
584,363	21,73
584,556	20,13
584,75	-4,31
584,943	25,74
585,137	30,14
585,33	-36,75
585,524	62,19
585,718	2,1
585,911	60,19
586,105	22,93
586,298	44,16
586,491	-16,32
586,685	-59,19
586,878	35,35
587,072	-9,11
587,265	42,16
587,459	48,17
587,652	-23,53
587,845	-13,92
588,039	72,2
588,232	17,73
588,426	-5,11
588,619	-21,53
588,812	-34,75
589,005	51,78
589,199	26,94
589,392	-51,17
589,585	21,33
589,779	-18,33
589,972	69,8
590,165	47,77
590,358	-48,37
590,551	25,74
590,745	9,71
590,938	62,19
591,131	-41,56
591,324	-8,31
591,517	-64,39
591,71	18,93
591,904	-10,72
592,097	-6,71
592,29	2,1
592,483	29,34
592,676	-68,8
592,869	17,73
593,062	72,2
593,255	-51,98
593,448	-76,81
593,641	54,58
593,834	59,79
594,027	-52,38
594,22	11,72
594,413	-12,32
594,606	-34,75
594,799	47,77
594,992	-10,31
595,184	-29,14
595,377	27,34
595,57	-3,1
595,763	-3,51
595,956	-2,3
596,149	40,56
596,341	12,92
596,534	-18,73
596,727	63,39
596,92	-23,13
597,113	-61,19
597,305	14,52
597,498	46,57
597,691	-11,12
597,883	42,56
598,076	-4,71
598,269	15,32
598,462	-2,3
598,654	6,51
598,847	-38,36
599,039	13,72
599,232	45,77
599,425	10,92
599,617	22,93
599,81	11,72
600,002	42,16
600,195	-51,17
600,387	55,78
600,58	-28,74
600,772	33,35
600,965	-5,11
601,157	-42,76
601,35	-9,51
601,542	11,32
601,735	-23,13
601,927	47,77
602,12	-40,36
602,312	44,97
602,504	-45,57
602,697	17,33
602,889	14,92
603,082	18,53
603,274	25,74
603,466	69
603,659	-15,92
603,851	10,52
604,043	-56,38
604,235	22,53
604,428	54,98
604,62	-15,92
604,812	57,78
605,004	3,71
605,197	-58,79
605,389	37,35
605,581	-45,97
605,773	56,98
605,965	59,79
606,157	-36,75
606,349	-22,73
606,542	-7,91
606,734	1,3
606,926	59,39
607,118	4,11
607,31	22,93
607,502	-3,1
607,694	41,76
607,886	-11,12
608,078	-36,35
608,27	-28,34
608,462	32,95
608,654	-45,57
608,846	3,71
609,038	-61,99
609,23	86,63
609,422	50,17
609,614	-49,57
609,805	-23,93
609,997	78,61
610,189	-96,84
610,381	19,33
610,573	-5,51
610,765	-52,78
610,957	-13,52
611,148	14,52
611,34	5,71
611,532	-6,31
611,724	62,99
611,915	30,54
612,107	69
612,299	-27,14
612,491	46,57
612,682	58,18
612,874	-59,59
613,066	-52,38
613,257	-26,34
613,449	-16,72
613,64	-39,16
613,832	-6,31
614,024	-59,19
614,215	55,38
614,407	7,71
614,598	23,73
614,79	50,97
614,981	-14,32
615,173	9,31
615,364	-90,43
615,556	-42,36
615,747	52,58
615,939	-25,54
616,13	-58,79
616,322	92,23
616,513	8,51
616,705	9,71
616,896	54,18
617,087	106,25
617,279	3,3
617,47	-28,74
617,661	9,71
617,853	16,52
618,044	-9,91
618,235	-35,15
618,427	24,13
618,618	-40,76
618,809	12,92
619	-3,91
619,192	3,71
619,383	-17,93
619,574	-1,1
619,765	-28,34
619,957	78,61
620,148	46,97
620,339	-4,71
620,53	18,93
620,721	-8,71
620,912	-5,51
621,103	47,77
621,294	25,74
621,485	24,54
621,677	60,59
621,868	59,39
622,059	-31,55
622,25	70,2
622,441	-80,02
622,632	14,52
622,823	6,91
623,014	-13,52
623,205	79,82
623,395	-6,71
623,586	3,3
623,777	75,81
623,968	-35,15
624,159	-5,91
624,35	6,11
624,541	16,52
624,732	42,96
624,923	36,15
625,113	-53,18
625,304	-23,53
625,495	-11,92
625,686	-32,75
625,877	18,13
626,067	-19,93
626,258	-24,74
626,449	-9,91
626,639	-17,12
626,83	50,57
627,021	-21,13
627,211	-20,33
627,402	71
627,593	-32,75
627,783	14,92
627,974	-8,71
628,165	-17,12
628,355	-15,92
628,546	-9,51
628,736	34,55
628,927	4,91
629,117	42,96
629,308	-23,13
629,498	-39,16
629,689	77,01
629,879	0,1
630,07	9,71
630,26	-18,33
630,451	-25,94
630,641	6,51
630,832	58,99
631,022	12,92
631,212	63,79
631,403	-38,76
631,593	38,16
631,784	-58,79
631,974	90,23
632,164	22,13
632,355	-27,14
632,545	-17,93
632,735	10,11
632,925	-28,74
633,116	67,8
633,306	-49,57
633,496	0,5
633,686	40,56
633,876	36,95
634,067	-13,12
634,257	13,72
634,447	-27,54
634,637	-14,72
634,827	-29,14
635,017	-89,23
635,208	25,34
635,398	2,1
635,588	28,54
635,778	-46,37
635,968	66,2
636,158	26,94
636,348	-29,54
636,538	-28,34
636,728	58,18
636,918	15,72
637,108	40,96
637,298	-45,17
637,488	-27,14
637,678	1,3
637,868	-31,15
638,057	74,21
638,247	-14,72
638,437	43,76
638,627	73,81
638,817	-29,54
639,007	-23,13
639,197	10,11
639,386	-61,99
639,576	8,11
639,766	-81,62
639,956	42,96
640,145	12,52
640,335	42,16
640,525	0,9
640,715	42,16
640,904	48,97
641,094	-12,32
641,284	-29,94
641,473	-23,13
641,663	46,57
641,853	-54,38
642,042	14,12
642,232	-8,31
642,421	-9,11
642,611	82,22
642,801	-3,51
642,99	16,92
643,18	54,98
643,369	40,56
643,559	24,13
643,748	105,85
643,938	77,41
644,127	16,12
644,317	-70,8
644,506	2,5
644,695	62,99
644,885	-7,11
645,074	-73,21
645,264	0,1
645,453	-23,93
645,642	-21,53
645,832	-34,75
646,021	22,53
646,21	3,3
646,4	-76,01
646,589	22,13
646,778	0,5
646,967	-83,62
647,157	-90,03
647,346	73,01
647,535	-35,15
647,724	28,14
647,913	42,16
648,103	-0,3
648,292	-3,91
648,481	-9,91
648,67	45,37
648,859	10,11
649,048	30,94
649,237	-86,43
649,427	80,62
649,616	-26,34
649,805	78,61
649,994	-17,12
650,183	-29,94
650,372	71,4
650,561	-14,72
650,75	24,54
650,939	14,12
651,128	-7,91
651,317	-35,55
651,506	-49,57
651,694	29,34
651,883	56,98
652,072	0,5
652,261	18,13
652,45	15,32
652,639	6,51
652,828	-7,51
653,016	20,13
653,205	-22,73
653,394	-72,4
653,583	-39,96
653,772	9,71
653,96	-37,15
654,149	-55,18
654,338	10,11
654,527	-2,3
654,715	5,71
654,904	28,14
655,093	-43,16
655,281	-16,32
655,47	-11,92
655,658	28,54
655,847	-43,16
656,036	-10,31
656,224	5,71
656,413	-13,92
656,601	-37,96
656,79	-39,56
656,978	-7,91
657,167	3,3
657,355	-13,92
657,544	-59,19
657,732	16,12
657,921	-11,92
658,109	-23,93
658,298	11,72
658,486	1,7
658,675	2,5
658,863	76,61
659,051	-10,72
659,24	-34,35
659,428	-80,42
659,616	-14,32
659,805	-61,19
659,993	-48,37
660,181	-70,4
660,37	32,55
660,558	-55,58
660,746	38,96
660,934	-21,13
661,123	-49,17
661,311	-62,79
661,499	51,78
661,687	-27,54
661,875	26,14
662,064	1,3
662,252	-11,52
662,44	-58,38
662,628	-51,98
662,816	-21,13
663,004	7,31
663,192	-46,77
663,38	13,32
663,568	41,36
663,756	-38,36
663,944	12,52
664,132	20,13
664,32	1,7
664,508	11,32
664,696	-46,37
664,884	43,36
665,072	-17,12
665,26	-25,14
665,448	39,76
665,636	-33,15
665,824	49,37
666,012	-7,51
666,199	-38,76
666,387	14,12
666,575	-23,53
666,763	-53,18
666,951	-12,32
667,139	14,12
667,326	12,12
667,514	-52,38
667,702	-21,53
667,889	56,18
668,077	42,16
668,265	-29,14
668,453	-15,12
668,64	-49,57
668,828	-25,54
669,016	-3,51
669,203	-5,11
669,391	58,18
669,578	32,15
669,766	-20,33
669,954	-5,51
670,141	12,52
670,329	-70,8
670,516	-12,72
670,704	20,93
670,891	-4,71
671,079	-22,73
671,266	33,75
671,454	44,16
671,641	-0,3
671,828	-0,3
672,016	-94,44
672,203	-15,52
672,391	26,94
672,578	32,55
672,765	-54,78
672,953	-9,91
673,14	26,14
673,327	-2,3
673,515	-9,11
673,702	-26,74
673,889	-39,96
674,077	-78,01
674,264	4,91
674,451	-10,72
674,638	21,33
674,825	-103,65
675,013	-17,53
675,2	-9,11
675,387	-8,31
675,574	-83,62
675,761	5,71
675,948	15,32
676,136	15,32
676,323	-21,13
676,51	-43,16
676,697	81,42
676,884	-25,54
677,071	32,55
677,258	50,97
677,445	21,73
677,632	-18,73
677,819	-52,78
678,006	-14,72
678,193	9,31
678,38	-60,79
678,567	-9,51
678,754	22,93
678,94	-1,1
679,127	9,71
679,314	-5,51
679,501	-0,3
679,688	41,76
679,875	-32,75
680,062	24,94
680,248	1,3
680,435	-6,31
680,622	47,77
680,809	-25,14
680,995	49,37
681,182	41,36
681,369	-28,34
681,556	24,54
681,742	28,94
681,929	34,55
682,116	66,2
682,302	-77,21
682,489	12,92
682,675	-60,79
682,862	84,22
683,049	26,94
683,235	32,55
683,422	-22,33
683,608	34,15
683,795	-34,35
683,981	-75,61
684,168	-18,73
684,354	18,13
684,541	10,52
684,727	36,55
684,914	14,52
685,1	7,31
685,287	-45,57
685,473	6,91
685,659	20,93
685,846	26,54
686,032	-34,35
686,218	27,74
686,405	24,94
686,591	-16,32
686,777	16,52
686,964	23,73
687,15	39,76
687,336	22,13
687,522	15,72
687,709	-63,99
687,895	13,32
688,081	-1,5
688,267	-14,32
688,454	11,72
688,64	18,93
688,826	50,57
689,012	-41,16
689,198	-25,54
689,384	9,31
689,57	10,11
689,756	-8,71
689,942	10,11
690,128	17,33
690,314	28,14
690,501	-30,74
690,687	11,32
690,873	6,91
691,058	-38,36
691,244	-27,14
691,43	-71,6
691,616	0,9
691,802	-49,97
691,988	17,73
692,174	0,9
692,36	22,13
692,546	-7,51
692,732	83,02
692,917	60,59
693,103	52,18
693,289	43,36
693,475	-35,55
693,661	18,93
693,846	-6,31
694,032	-92,03
694,218	-2,3
694,404	66,6
694,589	-20,33
694,775	13,72
694,961	4,11
695,146	-46,37
695,332	-17,12
695,518	37,35
695,703	-5,51
695,889	36,15
696,074	14,52
696,26	-17,53
696,446	-49,57
696,631	75,01
696,817	25,34
697,002	-20,33
697,188	31,75
697,373	-3,51
697,559	-11,52
697,744	-31,95
697,93	83,42
698,115	-53,18
698,3	-26,34
698,486	1,7
698,671	43,76
698,857	-21,53
699,042	-152,52
699,227	93,03
699,413	-7,51
699,598	4,91
699,783	-6,31
699,969	59,39
700,154	-37,55
700,339	-14,32
700,524	-16,32
700,71	-1,1
700,895	-55,58
701,08	45,77
701,265	-51,57
701,45	29,34
701,636	-39,16
701,821	-39,56
702,006	-43,96
702,191	13,72
702,376	-68,8
702,561	13,32
702,746	-64,39
702,931	87,43
703,116	13,32
703,301	-26,74
703,486	14,12
703,671	-51,57
703,856	-58,38
704,041	17,73
704,226	54,58
704,411	-44,36
704,596	-8,71
704,781	-14,32
704,966	7,71
705,151	-3,91
705,336	-19,13
705,521	-9,91
705,706	51,78
705,89	2,1
706,075	-19,53
706,26	26,54
706,445	-11,52
706,63	-36,75
706,814	-1,5
706,999	-42,36
707,184	-18,73
707,368	34,15
707,553	-13,92
707,738	-33,55
707,923	49,77
708,107	-3,51
708,292	2,5
708,476	45,77
708,661	26,94
708,846	21,33
709,03	39,76
709,215	42,16
709,399	-42,36
709,584	-29,94
709,768	46,97
709,953	13,32
710,137	-0,7
710,322	-41,16
710,506	-45,17
710,691	-15,12
710,875	-8,31
711,06	32,55
711,244	17,33
711,429	-1,5
711,613	-13,52
711,797	-31,95
711,982	-32,75
712,166	54,98
712,35	-11,12
712,535	75,01
712,719	97,04
712,903	7,31
713,088	-5,91
713,272	-3,91
713,456	-54,78
713,64	-5,11
713,824	-54,78
714,009	74,21
714,193	-29,94
714,377	-18,33
714,561	-3,51
714,745	44,97
714,929	80,62
715,113	-23,53
715,298	-17,12
715,482	42,56
715,666	-66,4
715,85	26,94
716,034	-35,55
716,218	-54,38
716,402	1,3
716,586	1,7
716,77	-11,52
716,954	10,92
717,138	-19,53
717,322	-48,37
717,506	2,5
717,689	-0,7
717,873	-46,37
718,057	1,3
718,241	19,73
718,425	-35,15
718,609	30,94
718,793	4,11
718,976	39,36
719,16	33,75
719,344	58,99
719,528	33,75
719,711	13,32
719,895	88,63
720,079	60,19
720,263	48,17
720,446	-41,16
720,63	-48,77
720,814	-105,25
720,997	-3,1
721,181	-13,92
721,364	-8,31
721,548	25,74
721,732	-12,32
721,915	47,37
722,099	-11,12
722,282	11,32
722,466	52,18
722,649	-68,8
722,833	-9,91
723,016	-33,15
723,2	30,54
723,383	-40,76
723,567	22,93
723,75	-21,93
723,934	40,16
724,117	-18,73
724,3	12,52
724,484	-19,53
724,667	-32,35
724,85	11,72
725,034	7,71
725,217	-7,51
725,4	0,1
725,584	62,99
725,767	-51,57
725,95	-26,34
726,133	-58,38
726,317	0,1
726,5	-11,52
726,683	1,7
726,866	36,95
727,049	-3,51
727,232	-26,74
727,416	6,51
727,599	4,51
727,782	-69,2
727,965	-53,58
728,148	70,6
728,331	62,59
728,514	20,93
728,697	2,9
728,88	-72
729,063	29,34
729,246	-22,33
729,429	-5,11
729,612	-3,1
729,795	13,32
729,978	36,15
730,161	18,53
730,344	16,52
730,526	4,91
730,709	38,96
730,892	22,53
731,075	-26,34
731,258	6,11
731,441	29,74
731,623	-17,93
731,806	7,71
731,989	21,73
732,172	-59,59
732,354	6,11
732,537	101,45
732,72	-35,95
732,903	52,98
733,085	20,53
733,268	46,17
733,451	-34,35
733,633	34,55
733,816	45,37
733,998	-25,94
734,181	-58,79
734,364	37,35
734,546	10,11
734,729	-37,96
734,911	-8,31
735,094	-1,9
735,276	33,35
735,459	-45,57
735,641	11,72
735,824	-3,91
736,006	-35,95
736,188	12,12
736,371	-33,55
736,553	6,11
736,736	0,5
736,918	-39,96
737,1	-0,7
737,283	-76,01
737,465	-27,54
737,647	-27,14
737,83	-60,39
738,012	23,33
738,194	5,31
738,376	-81,22
738,559	-16,72
738,741	-29,94
738,923	44,56
739,105	23,73
739,287	-5,91
739,469	12,12
739,652	55,38
739,834	-12,72
740,016	80,62
740,198	30,94
740,38	-34,75
740,562	-32,35
740,744	78,21
740,926	-34,35
741,108	5,31
741,29	5,71
741,472	36,55
741,654	40,16
741,836	53,38
742,018	47,37
742,2	61,39
742,382	4,91
742,564	34,15
742,746	15,72
742,928	-7,11
743,109	-14,72
743,291	-70,4
743,473	-4,31
743,655	-29,14
743,837	-2,7
744,019	-31,55
744,2	-9,11
744,382	28,94
744,564	-65,19
744,746	-27,94
744,927	-8,71
745,109	2,1
745,291	31,35
745,472	-18,73
745,654	4,11
745,836	15,72
746,017	-46,37
746,199	65,8
746,38	-5,91
746,562	-86,02
746,744	40,16
746,925	-37,55
747,107	42,56
747,288	47,77
747,47	-52,78
747,651	-68,8
747,833	-45,97
748,014	-15,52
748,195	39,36
748,377	23,73
748,558	-17,53
748,74	6,51
748,921	55,38
749,102	44,97
749,284	-30,34
749,465	85,42
749,646	-17,93
749,828	9,71
750,009	-14,32
750,19	1,7
750,372	26,14
750,553	42,56
750,734	-13,52
750,915	-81,22
751,096	7,71
751,278	25,74
751,459	20,53
751,64	-6,71
751,821	51,78
752,002	-25,14
752,183	-9,11
752,364	-10,72
752,546	38,16
752,727	-8,71
752,908	33,35
753,089	-3,51
753,27	16,12
753,451	10,52
753,632	8,91
753,813	-50,77
753,994	7,71
754,175	-17,53
754,356	8,51
754,536	26,54
754,717	-53,98
754,898	52,98
755,079	40,96
755,26	24,13
755,441	1,7
755,622	1,3
755,802	39,36
755,983	13,72
756,164	6,11
756,345	48,17
756,526	-21,13
756,706	13,32
756,887	-7,51
757,068	51,78
757,248	71
757,429	48,57
757,61	6,51
757,79	-20,33
757,971	4,91
758,152	-13,12
758,332	-55,18
758,513	14,52
758,693	30,14
758,874	37,75
759,055	60,19
759,235	10,92
759,416	-25,54
759,596	-15,92
759,777	56,18
759,957	-24,74
760,137	24,94
760,318	-9,11
760,498	32,95
760,679	-13,92
760,859	-19,53
761,039	53,78
761,22	35,35
761,4	42,16
761,581	62,99
761,761	23,33
761,941	91,43
762,121	6,51
762,302	-22,33
762,482	27,74
762,662	-45,17
762,842	-14,32
763,023	14,52
763,203	-31,15
763,383	34,15
763,563	-5,91
763,743	-11,92
763,923	-18,73
764,104	18,53
764,284	7,71
764,464	-1,1
764,644	-20,33
764,824	18,13
765,004	-40,36
765,184	2,5
765,364	-15,92
765,544	-17,12
765,724	-42,76
765,904	12,12
766,084	5,71
766,264	-17,93
766,444	54,98
766,624	-8,31
766,804	-51,57
766,983	38,96
767,163	67,8
767,343	-17,53
767,523	6,11
767,703	44,56
767,883	29,74
768,062	-53,58
768,242	-7,51
768,422	-5,51
768,602	8,91
768,781	-29,14
768,961	-34,35
769,141	-9,91
769,32	-13,92
769,5	6,11
769,68	-1,1
769,859	-5,51
770,039	36,95
770,219	-1,5
770,398	-60,39
770,578	0,5
770,757	-48,77
770,937	-21,13
771,116	-45,57
771,296	-11,12
771,475	-37,15
771,655	-48,37
771,834	22,13
772,014	0,9
772,193	45,37
772,373	-23,53
772,552	-59,19
772,731	-29,94
772,911	-15,92
773,09	67,4
773,269	-35,15
773,449	3,3
773,628	18,53
773,807	-29,94
773,987	-4,31
774,166	6,91
774,345	25,74
774,524	20,93
774,704	-10,31
774,883	-35,15
775,062	42,56
775,241	13,32
775,42	-30,74
775,6	8,51
775,779	-41,96
775,958	24,13
776,137	61,79
776,316	50,17
776,495	38,16
776,674	-63,59
776,853	-31,55
777,032	14,12
777,211	15,32
777,39	-26,74
777,569	15,32
777,748	34,95
777,927	-40,36
778,106	-27,94
778,285	-19,53
778,464	-5,91
778,643	14,12
778,822	-39,96
779	49,37
779,179	-26,34
779,358	11,32
779,537	-3,91
779,716	-53,98
779,894	-4,71
780,073	6,11
780,252	-33,15
780,431	-20,73
780,609	-23,13
780,788	22,13
780,967	-30,34
781,145	31,35
781,324	-17,12
781,503	-55,18
781,681	-18,33
781,86	-0,7
782,039	-23,13
782,217	-85,62
782,396	-31,95
782,574	-45,17
782,753	77,41
782,931	38,16
783,11	-15,92
783,288	-21,13
783,467	48,97
783,645	-95,24
783,824	28,54
784,002	-77,21
784,18	-29,14
784,359	10,11
784,537	-21,53
784,716	-15,12
784,894	14,12
785,072	-49,97
785,251	40,56
785,429	-30,34
785,607	50,17
785,785	22,53
785,964	-8,71
786,142	-133,69
786,32	-11,92
786,498	-44,36
786,677	20,93
786,855	15,32
787,033	-2,7
787,211	-28,34
787,389	33,75
787,567	42,96
787,745	-16,32
787,923	41,36
788,102	16,92
788,28	72,2
788,458	-23,53
788,636	-25,54
788,814	-33,15
788,992	46,17
789,17	20,13
789,348	34,55
789,526	44,56
789,703	-16,72
789,881	16,92
790,059	-49,17
790,237	5,71
790,415	-41,96
790,593	3,71
790,771	15,32
790,949	22,53
791,126	69,4
791,304	-24,74
791,482	-39,96
791,66	-17,53
791,837	-4,71
792,015	-0,3
792,193	-25,54
792,371	46,57
792,548	72,61
792,726	30,14
792,904	-13,12
793,081	-40,36
793,259	-47,57
793,436	72,2
793,614	-21,13
793,792	8,11
793,969	71
794,147	3,3
794,324	83,82
794,502	50,57
794,679	-68,8
794,857	-2,3
795,034	-2,7
795,212	-48,37
795,389	9,71
795,567	46,17
795,744	42,96
795,921	-14,32
796,099	-39,56
796,276	2,5
796,453	27,34
796,631	-4,31
796,808	-37,96
796,985	-42,76
797,163	36,95
797,34	-9,91
797,517	54,58
797,694	-4,31
797,872	-36,35
798,049	-16,32
798,226	41,36
798,403	29,34
798,58	-5,51
798,757	-45,57
798,935	-1,9
799,112	-4,71
799,289	-31,55
799,466	-24,74
799,643	17,73
799,82	43,76
799,997	18,13
800,174	22,53
800,351	-40,36
800,528	20,13
800,705	-1,9
800,882	17,33
801,059	17,33
801,236	34,15
801,413	-34,75
801,589	-21,93
801,766	-32,35
801,943	-10,31
802,12	51,37
802,297	7,71
802,474	-17,53
802,651	-23,93
802,827	-9,51
803,004	16,12
803,181	67,8
803,358	38,96
803,534	-10,31
803,711	-41,16
803,888	-41,96
804,064	-40,36
804,241	-47,97
804,418	-43,96
804,594	-29,14
804,771	-66
804,947	81,82
805,124	-34,35
805,301	37,35
805,477	58,18
805,654	39,36
805,83	-92,03
806,007	-9,11
806,183	33,35
806,36	50,17
806,536	-20,33
806,712	-45,17
806,889	-57,18
807,065	-13,92
807,242	-1,9
807,418	42,56
807,594	-5,91
807,771	25,74
807,947	-11,52
808,123	41,76
808,3	9,71
808,476	-25,14
808,652	-55,58
808,829	-5,11
809,005	61,39
809,181	-3,91
809,357	42,96
809,533	-42,76
809,71	41,76
809,886	-6,71
810,062	75,81
810,238	-53,58
810,414	7,71
810,59	-51,57
810,766	-61,59
810,942	12,12
811,118	-11,12
811,294	-8,71
811,47	4,51
811,646	52,58
811,822	-15,92
811,998	57,78
812,174	-19,53
812,35	-3,1
812,526	-47,57
812,702	-48,37
812,878	22,53
813,054	24,13
813,23	-48,77
813,405	45,37
813,581	18,53
813,757	54,98
813,933	4,11
814,109	-51,98
814,284	95,84
814,46	39,76
814,636	-39,96
814,812	-19,93
814,987	-63,99
815,163	5,31
815,339	-26,34
815,514	-30,74
815,69	-13,92
815,866	-13,12
816,041	7,31
816,217	36,95
816,392	3,3
816,568	-0,3
816,743	45,77
816,919	4,91
817,094	37,35
817,27	-27,94
817,445	13,72
817,621	-49,17
817,796	9,31
817,972	-17,12
818,147	-20,33
818,322	0,5
818,498	85,02
818,673	12,52
818,849	-22,33
819,024	-76,01
819,199	28,54
819,375	29,34
819,55	4,11
819,725	13,72
819,9	10,92
820,076	69
820,251	-41,56
820,426	67,8
820,601	47,37
820,776	18,93
820,952	28,54
821,127	-4,71
821,302	43,76
821,477	9,31
821,652	-28,34
821,827	22,53
822,002	-26,34
822,177	-23,93
822,352	-33,95
822,527	9,71
822,702	-61,99
822,877	31,35
823,052	8,11
823,227	24,13
823,402	2,5
823,577	49,37
823,752	-9,91
823,927	-66,8
824,102	100,65
824,277	60,19
824,451	-22,33
824,626	-32,35
824,801	14,52
824,976	101,45
825,151	-6,71
825,325	39,36
825,5	14,12
825,675	32,15
825,85	40,56
826,024	29,74
826,199	18,53
826,374	27,34
826,548	44,16
826,723	45,37
826,897	25,74
827,072	-15,92
827,247	-12,32
827,421	-49,97
827,596	-15,52
827,77	1,7
827,945	31,35
828,119	9,71
828,294	36,15
828,468	-39,96
828,643	15,72
828,817	4,51
828,992	20,53
829,166	-55,58
829,34	61,79
829,515	10,92
829,689	11,72
829,864	34,55
830,038	12,12
830,212	66,6
830,386	-59,99
830,561	69,4
830,735	1,7
830,909	62,19
831,084	-11,92
831,258	19,33
831,432	-0,7
831,606	28,54
831,78	18,93
831,954	51,37
832,129	40,16
832,303	-42,36
832,477	-19,13
832,651	61,79
832,825	-27,94
832,999	63,39
833,173	-59,19
833,347	8,91
833,521	-23,93
833,695	37,35
833,869	2,5
834,043	-21,93
834,217	-41,16
834,391	-29,14
834,565	2,1
834,739	28,94
834,913	-55,18
835,086	-18,73
835,26	-30,74
835,434	-27,94
835,608	-0,7
835,782	5,31
835,956	-53,18
836,129	-72
836,303	80,62
836,477	-3,91
836,651	-1,1
836,824	27,34
836,998	-15,92
837,172	-11,52
837,345	61,79
837,519	-29,14
837,693	37,35
837,866	-39,16
838,04	-35,55
838,213	-60,39
838,387	-26,34
838,56	-70
838,734	-15,12
838,907	54,18
839,081	26,54
839,254	-33,55
839,428	-30,34
839,601	-7,51
839,775	-82,82
839,948	54,98
840,122	39,36
840,295	-9,11
840,468	-10,31
840,642	19,33
840,815	-56,78
840,988	-25,54
841,162	-27,94
841,335	11,72
841,508	24,54
841,682	-39,16
841,855	23,73
842,028	37,75
842,201	36,95
842,374	-46,37
842,548	5,71
842,721	5,71
842,894	-1,9
843,067	-123,28
843,24	-48,37
843,413	-39,96
843,586	6,11
843,759	15,72
843,932	22,53
844,105	-37,96
844,278	-37,96
844,451	34,15
844,624	63,39
844,797	-19,93
844,97	-23,93
845,143	14,92
845,316	34,95
845,489	-49,17
845,662	-39,96
845,835	75,01
846,008	-40,36
846,18	-17,12
846,353	73,41
846,526	67,8
846,699	-5,91
846,872	26,94
847,044	11,72
847,217	-50,77
847,39	-10,31
847,563	-13,12
847,735	-0,3
847,908	41,76
848,081	-35,95
848,253	-55,18
848,426	-45,17
848,598	51,78
848,771	34,15
848,944	-72
849,116	-67,6
849,289	-25,54
849,461	-41,96
849,634	-15,52
849,806	-19,13
849,979	-5,11
850,151	54,98
850,324	80,22
850,496	43,36
850,668	-56,38
850,841	-26,34
851,013	50,97
851,186	-30,74
851,358	-18,73
851,53	25,34
851,703	-21,13
851,875	-35,55
852,047	-31,55
852,219	-29,54
852,392	-0,3
852,564	24,94
852,736	-66,4
852,908	-85,22
853,081	71
853,253	-13,52
853,425	5,31
853,597	46,17
853,769	-49,17
853,941	34,95
854,113	-12,72
854,285	9,71
854,457	16,12
854,63	-1,1
854,802	55,38
854,974	-20,33
855,146	29,34
855,318	54,58
855,489	-17,53
855,661	56,98
855,833	4,11
856,005	41,76
856,177	-57,58
856,349	-36,35
856,521	-19,93
856,693	-80,02
856,865	-23,13
857,036	112,26
857,208	-12,72
857,38	-51,98
857,552	-22,73
857,723	22,93
857,895	-35,95
858,067	7,71
858,239	12,12
858,41	-83,22
858,582	58,18
858,754	9,71
858,925	-104,45
859,097	39,76
859,268	62,19
859,44	-3,91
859,612	-7,91
859,783	-86,43
859,955	-43,96
860,126	-40,76
860,298	-25,54
860,469	67,4
860,641	-53,18
860,812	-22,33
860,983	-67,2
861,155	-2,3
861,326	-12,72
861,498	-17,93
861,669	-14,72
861,84	10,52
862,012	1,7
862,183	37,75
862,354	53,78
862,526	-33,95
862,697	10,11
862,868	-26,34
863,039	-38,36
863,211	-79,21
863,382	-22,33
863,553	-27,94
863,724	-57,58
863,895	-31,55
864,066	54,58
864,238	-3,1
864,409	21,73
864,58	-83,62
864,751	56,18
864,922	11,32
865,093	27,34
865,264	54,98
865,435	-43,16
865,606	44,56
865,777	6,11
865,948	0,5
866,119	26,94
866,29	57,78
866,461	-30,74
866,632	-83,22
866,802	-2,7
866,973	-15,12
867,144	-31,55
867,315	-14,32
867,486	50,17
867,657	16,12
867,827	8,51
867,998	49,37
868,169	-26,74
868,34	24,13
868,51	-23,13
868,681	40,16
868,852	-3,1
869,022	34,55
869,193	71,8
869,364	14,12
869,534	-52,38
869,705	-7,91
869,875	26,14
870,046	-38,36
870,217	10,92
870,387	-21,53
870,558	65,8
870,728	57,78
870,899	-11,12
871,069	-39,96
871,239	54,98
871,41	-2,3
871,58	42,16
871,751	-35,95
871,921	-14,72
872,091	-35,55
872,262	0,1
872,432	39,76
872,602	-84,02
872,773	30,54
872,943	8,51
873,113	26,94
873,284	-5,11
873,454	-6,71
873,624	-8,71
873,794	-1,5
873,964	37,75
874,135	-22,73
874,305	-6,31
874,475	44,97
874,645	-66,8
874,815	21,33
874,985	-23,53
875,155	-44,36
875,325	-57,58
875,495	-39,96
875,665	-2,7
875,835	-12,32
876,005	-22,73
876,175	5,71
876,345	-12,72
876,515	-36,75
876,685	83,02
876,855	29,74
877,025	-41,96
877,195	-100,05
877,365	-2,3
877,534	24,13
877,704	-53,18
877,874	36,95
878,044	-21,53
878,214	49,77
878,383	20,93
878,553	42,56
878,723	-4,71
878,892	13,32
879,062	-4,31
879,232	-12,32
879,401	-33,95
879,571	8,11
879,741	-95,24
879,91	-10,31
880,08	23,33
880,249	6,51
880,419	4,11
880,589	-21,13
880,758	22,93
880,928	24,54
881,097	-72,81
881,267	18,53
881,436	-26,34
881,605	24,13
881,775	-76,01
881,944	-11,12
882,114	32,55
882,283	-32,35
882,452	22,53
882,622	-29,94
882,791	-39,96
882,96	-4,71
883,13	39,76
883,299	12,12
883,468	8,91
883,637	-41,96
883,807	-0,7
883,976	-4,71
884,145	-15,52
884,314	4,11
884,483	-34,35
884,652	-24,74
884,822	-3,91
884,991	-15,52
885,16	24,13
885,329	37,35
885,498	2,1
885,667	52,18
885,836	-17,53
886,005	-39,16
886,174	56,18
886,343	15,72
886,512	1,3
886,681	19,33
886,85	8,11
887,019	41,36
887,187	-5,91
887,356	15,72
887,525	-45,57
887,694	-9,91
887,863	-12,72
888,032	-25,94
888,2	44,97
888,369	-33,55
888,538	2,1
888,707	-35,95
888,875	-78,01
889,044	-49,17
889,213	50,17
889,381	14,52
889,55	-18,33
889,719	34,55
889,887	40,56
890,056	-58,38
890,224	21,33
890,393	-36,75
890,562	43,36
890,73	-6,71
890,899	8,91
891,067	13,32
891,236	-9,51
891,404	81,82
891,573	2,9
891,741	34,15
891,909	2,1
892,078	51,37
892,246	-5,91
892,415	-21,93
892,583	32,55
892,751	-6,71
892,92	4,11
893,088	42,56
893,256	52,18
893,424	-37,15
893,593	13,32
893,761	-28,34
893,929	-94,04
894,097	5,71
894,265	-22,33
894,434	35,75
894,602	66,6
894,77	20,13
894,938	55,78
895,106	0,5
895,274	26,14
895,442	15,32
895,61	46,97
895,778	-59,59
895,946	2,1
896,114	33,75
896,282	-39,16
896,45	-6,71
896,618	36,55
896,786	41,36
896,954	16,52
897,122	50,97
897,29	-2,7
897,458	15,72
897,625	1,7
897,793	31,75
897,961	43,36
898,129	-25,54
898,297	19,33
898,464	-37,96
898,632	26,14
898,8	25,74
898,968	-25,54
899,135	37,75
899,303	-70,8
899,471	-51,98
899,638	13,72
899,806	-9,11
899,973	0,1
900,141	70,6
900,309	-28,34
900,476	-12,32
900,644	65,8
900,811	-9,11
900,979	50,17
901,146	2,5
901,314	6,91
901,481	-22,33
901,649	60,19
901,816	9,71
901,983	-13,12
902,151	-34,35
