Data from Subt4__20__14-45-40-124.txt Node

Date: Thu Feb 19 14:45:40 CET 2026
User: Versuch 234
Spectrometer: USB4F05580
Trigger mode: 4
Integration Time (sec): 3,000000E-2
Scans to average: 10
Electric dark correction enabled: true
Nonlinearity correction enabled: false
Boxcar width: 0
XAxis mode: Wavelengths
Number of Pixels in Spectrum: 3648
>>>>>Begin Spectral Data<<<<<
197,409	71,74
197,623	71,74
197,837	71,74
198,051	130,02
198,265	92,97
198,479	-70,87
198,693	-8,98
198,907	-15,19
199,122	-6,58
199,336	-18,79
199,55	11,05
199,763	57,52
199,977	19,66
200,191	39,69
200,405	19,06
200,619	10,65
200,833	-37,22
201,047	19,26
201,261	97,78
201,475	72,34
201,689	71,94
201,903	63,53
202,117	-11,98
202,331	-4,77
202,545	1,84
202,758	79,35
202,972	-12,79
203,186	-49,64
203,4	82,15
203,614	33,28
203,828	5,44
204,041	35,28
204,255	58,12
204,469	36,29
204,683	77,75
204,897	15,46
205,11	55,31
205,324	54,71
205,538	11,85
205,752	24,07
205,965	91,77
206,179	68,93
206,393	-62,66
206,606	38,69
206,82	27,47
207,034	59,72
207,248	24,07
207,461	27,27
207,675	51,71
207,889	37,09
208,102	84,96
208,316	-13,39
208,529	-0,97
208,743	32,28
208,957	62,92
209,17	10,05
209,384	79,55
209,597	4,04
209,811	45,3
210,025	77,95
210,238	58,72
210,452	16,06
210,665	68,53
210,879	61,32
211,092	-8,38
211,306	9,45
211,519	-5,37
211,733	65,73
211,946	91,37
212,16	95,37
212,373	10,65
212,587	16,26
212,8	39,09
213,014	26,67
213,227	58,12
213,44	44,7
213,654	83,75
213,867	98,38
214,081	63,73
214,294	20,86
214,507	61,72
214,721	47,3
214,934	45,3
215,148	34,08
215,361	138,83
215,574	76,94
215,788	-46,43
216,001	109,59
216,214	40,29
216,428	66,93
216,641	37,69
216,854	48,7
217,067	39,09
217,281	69,13
217,494	68,33
217,707	78,95
217,92	-25,4
218,134	72,54
218,347	104,99
218,56	68,93
218,773	-1,37
218,986	100,98
219,2	62,52
219,413	9,25
219,626	-1,97
219,839	90,97
220,052	74,94
220,265	13,85
220,479	70,34
220,692	65,93
220,905	11,65
221,118	62,72
221,331	-3,77
221,544	58,32
221,757	55,51
221,97	79,35
222,183	-50,64
222,396	40,89
222,609	46,5
222,822	-47,84
223,035	54,31
223,249	31,28
223,462	67,33
223,675	-29,81
223,887	49,51
224,1	59,92
224,313	64,33
224,526	65,53
224,739	24,67
224,952	88,96
225,165	42,29
225,378	18,26
225,591	102,58
225,804	32,48
226,017	78,55
226,23	25,67
226,443	42,29
226,656	17,06
226,868	-20,8
227,081	103,98
227,294	25,47
227,507	41,09
227,72	1,24
227,933	68,93
228,145	55,51
228,358	15,46
228,571	56,52
228,784	-4,77
228,997	-22,2
229,209	60,92
229,422	36,49
229,635	73,34
229,848	31,48
230,06	-33,21
230,273	-20,2
230,486	52,51
230,698	-27,21
230,911	27,67
231,124	3,84
231,336	17,26
231,549	46,7
231,762	99,58
231,974	0,63
232,187	-41,63
232,4	71,54
232,612	19,26
232,825	64,13
233,038	53,11
233,25	53,11
233,463	54,51
233,675	23,47
233,888	67,33
234,1	120,81
234,313	91,37
234,526	56,11
234,738	15,86
234,951	10,65
235,163	3,64
235,376	69,53
235,588	-38,42
235,801	12,25
236,013	-36,02
236,226	71,74
236,438	29,88
236,65	86,76
236,863	-19,8
237,075	132,02
237,288	-1,97
237,5	-12,18
237,713	17,06
237,925	-16,39
238,137	22,87
238,35	67,13
238,562	25,47
238,774	117
238,987	130,42
239,199	41,69
239,411	41,29
239,624	63,33
239,836	55,71
240,048	42,7
240,261	89,96
240,473	55,51
240,685	47,1
240,897	-8,98
241,11	24,87
241,322	65,33
241,534	50,71
241,746	54,11
241,959	86,76
242,171	29,88
242,383	16,26
242,595	-11,38
242,807	37,89
243,02	66,73
243,232	66,73
243,444	23,67
243,656	62,72
243,868	53,11
244,08	-4,17
244,293	-15,39
244,505	47,5
244,717	36,09
244,929	-6,58
245,141	9,85
245,353	15,86
245,565	66,73
245,777	34,88
245,989	36,49
246,201	3,04
246,413	72,14
246,625	8,85
246,837	43,9
247,049	37,49
247,261	111,6
247,473	66,33
247,685	70,14
247,897	66,93
248,109	-20,2
248,321	56,11
248,533	-39,42
248,745	8,04
248,957	35,69
249,169	6,44
249,381	97,17
249,593	15,66
249,804	43,9
250,016	67,93
250,228	13,25
250,44	90,76
250,652	29,48
250,864	67,73
251,075	37,29
251,287	39,89
251,499	87,36
251,711	52,71
251,923	47,3
252,134	53,11
252,346	24,67
252,558	67,93
252,77	41,69
252,982	40,09
253,193	52,11
253,405	53,51
253,617	78,75
253,828	-9,58
254,04	98,98
254,252	134,83
254,463	64,33
254,675	25,07
254,887	-15,79
255,098	43,1
255,31	21,46
255,522	107,19
255,733	42,29
255,945	98,38
256,157	47,3
256,368	8,85
256,58	83,96
256,791	39,49
257,003	68,13
257,214	77,95
257,426	63,93
257,637	26,07
257,849	38,49
258,061	74,94
258,272	78,95
258,484	65,53
258,695	51,91
258,907	79,35
259,118	66,13
259,329	-14,99
259,541	66,73
259,752	67,93
259,964	98,98
260,175	28,07
260,387	-36,22
260,598	66,13
260,809	68,93
261,021	36,09
261,232	25,67
261,444	56,92
261,655	82,75
261,866	59,52
262,078	74,54
262,289	32,88
262,5	47,5
262,712	26,87
262,923	26,47
263,134	27,87
263,345	81,35
263,557	-37,82
263,768	-1,97
263,979	6,84
264,191	17,46
264,402	-4,97
264,613	81,55
264,824	2,44
265,035	13,65
265,247	92,37
265,458	15,06
265,669	14,65
265,88	39,69
266,091	49,71
266,302	52,11
266,514	13,05
266,725	23,87
266,936	39,09
267,147	-23,2
267,358	36,09
267,569	78,15
267,78	62,12
267,991	17,86
268,202	84,96
268,414	64,53
268,625	71,54
268,836	-8,78
269,047	127,82
269,258	0,23
269,469	17,66
269,68	80,55
269,891	52,11
270,102	115
270,313	36,69
270,524	65,53
270,735	39,09
270,945	57,32
271,156	99,78
271,367	65,13
271,578	87,16
271,789	-0,37
272	96,97
272,211	89,56
272,422	38,89
272,633	115
272,844	0,63
273,054	1,03
273,265	28,27
273,476	35,69
273,687	4,44
273,898	35,48
274,109	55,11
274,319	28,47
274,53	131,82
274,741	96,17
274,952	40,29
275,162	98,98
275,373	46,5
275,584	14,05
275,795	21,26
276,005	36,89
276,216	32,48
276,427	65,33
276,637	29,08
276,848	34,28
277,059	-4,57
277,269	46,3
277,48	48,5
277,691	79,55
277,901	32,48
278,112	14,85
278,323	19,66
278,533	75,74
278,744	55,91
278,954	27,67
279,165	36,69
279,376	70,94
279,586	8,45
279,797	45,3
280,007	28,67
280,218	91,37
280,428	90,76
280,639	106,39
280,849	21,87
281,06	24,27
281,27	19,66
281,481	30,28
281,691	57,92
281,902	31,48
282,112	53,31
282,322	122,61
282,533	40,69
282,743	77,75
282,954	75,34
283,164	11,65
283,374	86,16
283,585	108,59
283,795	-6,98
284,006	66,93
284,216	40,69
284,426	63,93
284,637	0,23
284,847	17,46
285,057	99,18
285,268	72,94
285,478	36,29
285,688	63,33
285,898	24,87
286,109	44,7
286,319	17,86
286,529	95,77
286,739	9,25
286,95	91,57
287,16	67,13
287,37	111,6
287,58	11,85
287,79	94,77
288,001	70,94
288,211	67,73
288,421	87,96
288,631	67,93
288,841	44,1
289,051	24,27
289,261	75,14
289,471	-16,19
289,682	46,1
289,892	65,93
290,102	46,3
290,312	25,07
290,522	59,72
290,732	81,75
290,942	100,38
291,152	79,35
291,362	70,94
291,572	-9,58
291,782	45,3
291,992	118,81
292,202	53,71
292,412	-5,17
292,622	49,51
292,832	95,37
293,042	43,7
293,252	48,7
293,462	97,98
293,672	40,69
293,881	67,13
294,091	45,5
294,301	18,86
294,511	83,55
294,721	122,21
294,931	128,02
295,141	46,3
295,35	72,34
295,56	40,29
295,77	57,32
295,98	6,64
296,19	101,58
296,4	66,13
296,609	13,05
296,819	75,74
297,029	70,34
297,239	71,34
297,448	101,58
297,658	33,88
297,868	88,56
298,077	23,27
298,287	44,3
298,497	32,68
298,706	100,98
298,916	32,48
299,126	83,75
299,335	101,18
299,545	51,51
299,755	25,47
299,964	64,53
300,174	155,66
300,384	123,61
300,593	111,19
300,803	29,28
301,012	66,73
301,222	87,76
301,431	4,44
301,641	57,72
301,851	82,35
302,06	90,16
302,27	61,32
302,479	71,94
302,689	82,35
302,898	27,67
303,107	79,15
303,317	81,15
303,526	134,43
303,736	119,81
303,945	83,15
304,155	36,69
304,364	119,61
304,574	66,13
304,783	46,9
304,992	46,3
305,202	40,69
305,411	62,32
305,62	103,98
305,83	122,01
306,039	64,33
306,248	79,35
306,458	7,44
306,667	-26,61
306,876	83,55
307,086	60,92
307,295	74,94
307,504	70,74
307,713	68,93
307,923	-56,45
308,132	92,37
308,341	26,47
308,55	38,89
308,76	25,27
308,969	53,91
309,178	91,97
309,387	105,19
309,596	10,25
309,805	58,12
310,015	77,95
310,224	47,9
310,433	27,87
310,642	33,28
310,851	50,71
311,06	50,11
311,269	69,93
311,478	8,85
311,687	-50,44
311,896	73,54
312,106	75,94
312,315	89,56
312,524	151,05
312,733	199,32
312,942	45,1
313,151	133,03
313,36	56,11
313,569	87,16
313,778	31,08
313,987	3,04
314,195	103,98
314,404	75,54
314,613	58,32
314,822	92,57
315,031	48,3
315,24	41,89
315,449	162,67
315,658	6,24
315,867	61,32
316,076	29,28
316,284	87,96
316,493	128,22
316,702	89,56
316,911	91,37
317,12	54,91
317,329	122,01
317,537	131,62
317,746	-51,04
317,955	97,17
318,164	97,57
318,372	70,74
318,581	122,41
318,79	39,09
318,999	46,9
319,207	49,1
319,416	-14,19
319,625	84,36
319,833	73,14
320,042	116,8
320,251	67,53
320,459	31,08
320,668	38,89
320,877	95,17
321,085	-2,97
321,294	-12,99
321,502	79,95
321,711	39,29
321,92	77,95
322,128	3,64
322,337	14,25
322,545	123,41
322,754	88,56
322,962	81,15
323,171	21,26
323,379	29,48
323,588	88,16
323,796	12,65
324,005	62,72
324,213	69,73
324,422	125,82
324,63	16,46
324,839	33,08
325,047	32,88
325,256	38,09
325,464	48,3
325,672	90,16
325,881	39,69
326,089	81,75
326,297	54,91
326,506	8,65
326,714	112,8
326,923	73,34
327,131	50,11
327,339	74,14
327,548	52,31
327,756	21,06
327,964	39,09
328,172	49,1
328,381	80,15
328,589	71,34
328,797	34,48
329,005	73,34
329,214	3,24
329,422	105,39
329,63	31,48
329,838	153,46
330,046	13,25
330,255	84,16
330,463	88,16
330,671	14,25
330,879	125,42
331,087	55,71
331,295	61,92
331,503	66,93
331,712	24,27
331,92	96,37
332,128	95,37
332,336	98,18
332,544	-15,99
332,752	56,72
332,96	26,67
333,168	50,31
333,376	-47,44
333,584	56,52
333,792	76,54
334	73,34
334,208	42,9
334,416	101,18
334,624	67,33
334,832	40,89
335,04	47,5
335,248	69,73
335,456	68,13
335,664	24,47
335,872	48,3
336,08	-1,77
336,287	40,69
336,495	118,2
336,703	64,33
336,911	120,61
337,119	34,28
337,327	99,98
337,535	103,78
337,742	52,91
337,95	84,76
338,158	70,54
338,366	16,66
338,573	53,91
338,781	80,55
338,989	127,22
339,197	77,35
339,404	39,29
339,612	63,12
339,82	27,27
340,028	22,87
340,235	103,98
340,443	69,33
340,651	107,99
340,858	-37,82
341,066	28,07
341,274	80,75
341,481	128,02
341,689	112,6
341,896	32,48
342,104	121,21
342,312	69,33
342,519	92,77
342,727	80,95
342,934	59,72
343,142	78,35
343,349	6,84
343,557	153,46
343,765	-8,98
343,972	75,34
344,18	53,51
344,387	103,18
344,594	95,57
344,802	160,87
345,009	54,11
345,217	50,71
345,424	127,22
345,632	34,28
345,839	89,16
346,047	67,33
346,254	50,91
346,461	91,77
346,669	51,51
346,876	95,37
347,083	75,74
347,291	82,15
347,498	84,76
347,705	107,59
347,913	39,49
348,12	59,52
348,327	73,34
348,535	27,07
348,742	54,91
348,949	54,51
349,156	36,49
349,364	56,31
349,571	89,76
349,778	80,95
349,985	12,85
350,192	76,94
350,4	91,17
350,607	113,6
350,814	107,19
351,021	40,69
351,228	74,54
351,435	117,2
351,643	63,73
351,85	89,16
352,057	109,99
352,264	102,18
352,471	91,77
352,678	114
352,885	106,19
353,092	69,93
353,299	45,9
353,506	88,56
353,713	109,99
353,92	39,69
354,127	100,98
354,334	76,54
354,541	84,76
354,748	100,18
354,955	133,03
355,162	115,4
355,369	81,95
355,576	132,02
355,783	134,43
355,99	58,52
356,197	19,26
356,404	70,14
356,611	49,91
356,817	12,65
357,024	68,73
357,231	115,6
357,438	69,93
357,645	73,14
357,852	87,56
358,058	95,57
358,265	91,17
358,472	86,96
358,679	89,76
358,885	74,14
359,092	139,44
359,299	-12,58
359,506	47,3
359,712	70,14
359,919	43,5
360,126	55,91
360,333	24,87
360,539	102,18
360,746	80,95
360,953	112,2
361,159	35,89
361,366	-4,77
361,572	118,2
361,779	71,94
361,986	56,31
362,192	56,92
362,399	108,59
362,605	46,5
362,812	47,5
363,019	48,3
363,225	68,33
363,432	136,23
363,638	43,1
363,845	21,46
364,051	146,25
364,258	85,56
364,464	148,85
364,671	40,49
364,877	134,03
365,084	138,03
365,29	65,13
365,496	145,84
365,703	40,69
365,909	63,73
366,116	126,42
366,322	74,14
366,528	70,94
366,735	74,74
366,941	28,07
367,147	99,58
367,354	149,65
367,56	98,38
367,766	108,39
367,973	136,83
368,179	56,52
368,385	84,16
368,592	124,41
368,798	116,8
369,004	63,73
369,21	69,93
369,417	132,43
369,623	36,09
369,829	94,37
370,035	88,56
370,241	115,8
370,448	64,73
370,654	92,57
370,86	72,14
371,066	107,99
371,272	90,36
371,478	112,2
371,684	79,75
371,891	104,79
372,097	106,19
372,303	31,88
372,509	100,18
372,715	64,93
372,921	89,56
373,127	97,37
373,333	120,81
373,539	58,12
373,745	114,2
373,951	115
374,157	84,36
374,363	98,58
374,569	72,74
374,775	84,56
374,981	45,9
375,187	50,71
375,393	84,56
375,599	91,37
375,804	85,76
376,01	73,74
376,216	105,59
376,422	72,54
376,628	111,39
376,834	109,19
377,04	94,57
377,246	80,95
377,451	50,31
377,657	16,06
377,863	108,39
378,069	47,7
378,274	112,6
378,48	123,01
378,686	136,43
378,892	111,8
379,097	60,12
379,303	117,2
379,509	90,97
379,715	140,04
379,92	127,02
380,126	116
380,332	33,68
380,537	73,54
380,743	171,28
380,949	80,55
381,154	80,15
381,36	71,34
381,565	98,58
381,771	99,38
381,977	64,33
382,182	88,96
382,388	100,78
382,593	79,55
382,799	89,76
383,004	24,87
383,21	98,98
383,415	48,9
383,621	71,14
383,826	71,54
384,032	112,4
384,237	51,91
384,443	84,96
384,648	38,09
384,854	161,47
385,059	42,29
385,265	66,93
385,47	46,5
385,675	110,99
385,881	137,63
386,086	59,92
386,291	38,69
386,497	138,43
386,702	50,91
386,907	90,97
387,113	63,73
387,318	98,38
387,523	67,53
387,729	96,97
387,934	125,82
388,139	122,61
388,344	89,76
388,55	129,62
388,755	66,53
388,96	131,82
389,165	172,68
389,371	159,26
389,576	51,11
389,781	186,5
389,986	59,12
390,191	157,06
390,396	60,72
390,601	130,62
390,807	96,37
391,012	107,39
391,217	105,99
391,422	123,81
391,627	106,79
391,832	-9,78
392,037	167,28
392,242	199,12
392,447	112,6
392,652	52,71
392,857	119,21
393,062	53,91
393,267	132,83
393,472	95,97
393,677	75,94
393,882	102,58
394,087	129,02
394,292	167,28
394,497	124,61
394,702	80,75
394,907	145,24
395,112	109,59
395,317	76,14
395,521	102,78
395,726	93,17
395,931	101,98
396,136	134,83
396,341	32,28
396,546	92,77
396,75	94,97
396,955	72,54
397,16	68,93
397,365	111,19
397,57	114,6
397,774	90,76
397,979	103,78
398,184	71,14
398,389	175,09
398,593	148,05
398,798	94,97
399,003	96,17
399,207	75,34
399,412	104,38
399,617	79,55
399,821	82,55
400,026	208,74
400,231	169,88
400,435	120,41
400,64	93,97
400,844	70,94
401,049	141,44
401,254	103,18
401,458	102,18
401,663	86,36
401,867	137,43
402,072	126,22
402,276	137,83
402,481	121,01
402,685	165,47
402,89	123,61
403,094	177,09
403,299	143,44
403,503	180,29
403,708	84,96
403,912	104,58
404,116	86,76
404,321	206,73
404,525	118,4
404,73	204,93
404,934	180,7
405,138	149,85
405,343	257,41
405,547	178,89
405,751	158,66
405,956	155,66
406,16	161,87
406,364	217,75
406,569	202,73
406,773	136,83
406,977	146,65
407,181	120,81
407,386	229,37
407,59	159,06
407,794	202,73
407,998	175,89
408,202	203,73
408,407	217,35
408,611	185,7
408,815	219,15
409,019	195,92
409,223	285,25
409,427	249,39
409,632	339,33
409,836	297,26
410,04	250
410,244	283,84
410,448	255,2
410,652	355,15
410,856	257,21
411,06	340,73
411,264	368,37
411,468	357,55
411,672	314,29
411,876	450,09
412,08	388,8
412,284	422,85
412,488	395,61
412,692	475,12
412,896	404,02
413,1	480,73
413,304	445,88
413,508	517,78
413,712	493,15
413,916	521,99
414,12	561,25
414,323	520,19
414,527	557,84
414,731	538,21
414,935	651,98
415,139	692,04
415,343	660,59
415,546	728,49
415,75	661,59
415,954	749,32
416,158	666,8
416,361	681,22
416,565	723,88
416,769	762,94
416,973	802,8
417,176	881,71
417,38	757,13
417,584	784,17
417,788	967,04
417,991	928,58
418,195	924,77
418,398	1043,35
418,602	983,86
418,806	998,08
419,009	1025,12
419,213	1187,96
419,417	1130,47
419,62	1196,57
419,824	1212,99
420,027	1196,17
420,231	1206,98
420,434	1282,29
420,638	1273,48
420,841	1397,66
421,045	1412,88
421,248	1436,32
421,452	1441,32
421,655	1503,01
421,859	1563,1
422,062	1510,42
422,266	1631,8
422,469	1631,2
422,673	1684,48
422,876	1744,56
423,079	1634,8
423,283	1761,39
423,486	1815,67
423,689	1857,13
423,893	1997,13
424,096	2001,94
424,299	2028,17
424,503	1977,5
424,706	1985,71
424,909	2098,07
425,113	2136,53
425,316	2201,83
425,519	2179,19
425,722	2412,73
425,926	2241,08
426,129	2419,94
426,332	2308,38
426,535	2505,26
426,739	2394,5
426,942	2445,38
427,145	2457,4
427,348	2705,56
427,551	2588,99
427,754	2648,87
427,957	2722,38
428,161	2719,98
428,364	2832,94
428,567	2923,67
428,77	2879,41
428,973	3066,88
429,176	3096,12
429,379	3094,92
429,582	3018,81
429,785	3221,1
429,988	3196,87
430,191	3485,89
430,394	3355,5
430,597	3478,48
430,8	3563,6
431,003	3721,03
431,206	3447,63
431,409	3825,98
431,612	3660,74
431,815	3959,57
432,018	4171,28
432,221	4184,3
432,423	4177,89
432,626	4362,36
432,829	4367,97
433,032	4556,04
433,235	4628,94
433,438	4649,57
433,64	4521,39
433,843	4768,35
434,046	4742,31
434,249	4699,25
434,452	4987,66
434,654	4884,31
434,857	5062,37
435,06	5059,37
435,263	5339,17
435,465	5350,19
435,668	5368,62
435,871	5646,02
436,073	5481,78
436,276	5826,28
436,479	5705,5
436,681	6063,22
436,884	5904,19
437,087	5992,32
437,289	6166,37
437,492	6402,51
437,694	6358,65
437,897	6398,51
438,1	6394,1
438,302	6555,94
438,505	6691,93
438,707	6831,14
438,91	6837,95
439,112	7007,99
439,315	6988,16
439,517	7406,97
439,72	7403,77
439,922	7392,55
440,125	7598,85
440,327	7656,93
440,529	7660,34
440,732	8440,67
440,934	7788,92
441,137	8313,28
441,339	8283,84
441,541	8596,09
441,744	8436,06
441,946	8693,84
442,148	8844,05
442,351	9258,45
442,553	8878,9
442,755	9384,24
442,958	9218,2
443,16	9476,37
443,362	9214,39
443,565	9620,38
443,767	9632
443,969	9801,04
444,171	9592,74
444,373	10157,56
444,576	10402,31
444,778	10493,64
444,98	10014,15
445,182	10704,95
445,384	10510,47
445,586	11122,96
445,789	10704,95
445,991	10834,34
446,193	10998,58
446,395	11097,72
446,597	10915,26
446,799	10972,54
447,001	11342,68
447,203	11493,49
447,405	11132,77
447,607	11428,6
447,809	11683,17
448,011	11456,04
448,213	11518,73
448,415	11418,59
448,617	11436,21
448,819	11486,28
449,021	10907,04
449,223	12086,35
449,425	11318,64
449,627	11887,27
449,829	11007,79
450,031	12105,38
450,233	11080,1
450,435	11404,37
450,636	11145,19
450,838	11039,44
451,04	11219,7
451,242	10805,5
451,444	10548,12
451,646	10824,72
451,847	10863,18
452,049	10587,98
452,251	10671,7
452,453	10604,41
452,654	10375,87
452,856	10410,93
453,058	11000,98
453,26	10288,75
453,461	9971,29
453,663	9901,39
453,865	10488,64
454,066	10721,98
454,268	9650,62
454,47	9514,83
454,671	9582,52
454,873	9386,24
455,074	8995,87
455,276	9370,42
455,478	8811,21
455,679	9122,86
455,881	9271,27
456,082	9042,94
456,284	8687,63
456,485	8749,92
456,687	8737,5
456,888	8738,7
457,09	8404,82
457,291	8451,89
457,493	8296,46
457,694	8501,96
457,896	8147,24
458,097	8199,92
458,299	8130,82
458,5	7854,62
458,701	7823,98
458,903	8290,45
459,104	8010,25
459,306	7903,69
459,507	7777,11
459,708	7974,59
459,91	7663,94
460,111	7695,39
460,312	8018,26
460,514	7559,19
460,715	7789,32
460,916	7945,15
461,117	7578,22
461,319	7547,57
461,52	7733,64
461,721	7579,62
461,922	7529,75
462,124	7358,9
462,325	7715,02
462,526	7524,54
462,727	7298,01
462,928	7675,96
463,129	7363,51
463,331	7658,33
463,532	7386,34
463,733	7512,12
463,934	7448,03
464,135	7891,47
464,336	7176,64
464,537	8000,83
464,738	7592,24
464,939	7329,66
465,14	7449,63
465,341	8086,56
465,542	7677,56
465,743	7689,98
465,944	7473,47
466,145	7869,64
466,346	7856,82
466,547	7684,17
466,748	7422,99
466,949	7817,97
467,15	7834,79
467,351	7513,12
467,552	7887,87
467,753	7610,06
467,953	7691,58
468,154	7615,07
468,355	7410,38
468,556	7499,3
468,757	7761,68
468,958	7756,88
469,158	7609,26
469,359	7610,47
469,56	7632,1
469,761	7565,6
469,962	8052,31
470,162	7919,11
470,363	7871,84
470,564	8004,84
470,764	7742,86
470,965	7849,41
471,166	7652,53
471,366	8108,19
471,567	7751,87
471,768	7970,79
471,968	7909,7
472,169	7888,47
472,37	7689,78
472,57	7904,29
472,771	8098,17
472,971	8180,89
473,172	8051,71
473,373	8175,68
473,573	7896,68
473,774	8181,49
473,974	8506,76
474,175	8704,05
474,375	8420,64
474,576	8459,1
474,776	8564,65
474,977	8653,78
475,177	8639,16
475,377	8410,63
475,578	8427,65
475,778	8829,23
475,979	8563,45
476,179	8946,8
476,379	9168,32
476,58	8955,82
476,78	8921,17
476,981	9046,15
477,181	9103,83
477,381	9145,29
477,582	9197,77
477,782	9625,59
477,982	9504,81
478,182	9708,31
478,383	9698,09
478,583	9954,86
478,783	9958,47
478,983	10275,73
479,184	10098,07
479,384	10386,09
479,584	10232,07
479,784	10553,13
479,984	10581,97
480,184	10645,06
480,385	10862,98
480,585	11360,5
480,785	11070,68
480,985	11323,05
481,185	11302,22
481,385	11614,67
481,585	11440,62
481,785	12079,94
481,985	11896,08
482,185	12434,26
482,385	12025,67
482,585	12280,44
482,785	12577,87
482,985	12501,96
483,185	12655,58
483,385	12976,84
483,585	12988,26
483,785	13162,51
483,985	13064,97
484,185	13627,59
484,385	13594,14
484,585	13773,8
484,785	13808,05
484,985	14275,13
485,185	14189,6
485,384	14495,25
485,584	14604,6
485,784	14638,85
485,984	14691,73
486,184	15072,08
486,383	15217,89
486,583	15313,03
486,783	15323,05
486,983	15550,58
487,183	15638,7
487,382	15872,44
487,582	15919,91
487,782	16245,98
487,981	16315,48
488,181	16599,1
488,381	16591,08
488,58	16862,28
488,78	16952,41
488,98	17139,28
489,179	17195,56
489,379	17622,18
489,579	17477,77
489,778	18151,15
489,978	18052,2
490,177	18180,39
490,377	18564,54
490,576	18422,74
490,776	18627,04
490,975	19062,47
491,175	19018,4
491,374	19278,98
491,574	19314,03
491,773	19272,37
491,973	19528,14
492,172	20071,13
492,372	19946,95
492,571	20287,24
492,771	20409,62
492,97	20673,4
493,169	20586,28
493,369	21401,26
493,568	20930,57
493,767	21364
493,967	21403,86
494,166	21830,68
494,365	21549,67
494,565	21813,65
494,764	21903,79
494,963	22323,99
495,163	22542,51
495,362	22641,25
495,561	22498,45
495,76	23452,23
495,959	22849,96
496,159	23074,08
496,358	23153,8
496,557	23764,88
496,756	23591,03
496,955	23723,62
497,155	23996,22
497,354	24101,77
497,553	23920,31
497,752	24530,19
497,951	24721,27
498,15	24937,78
498,349	24306,27
498,548	25125,46
498,747	25136,67
498,946	25209,18
499,145	25142,08
499,344	25543,86
499,543	25468,15
499,742	25854,31
499,941	25664,84
500,14	25974,49
500,339	25883,75
500,538	26372,06
500,737	26280,93
500,936	26406,71
501,135	26628,83
501,334	27156,6
501,533	26893,02
501,732	27181,64
501,931	27014,79
502,129	27357,29
502,328	27383,93
502,527	27621,27
502,726	27163,21
502,925	27758,07
503,123	27996,82
503,322	28237,77
503,521	27913,5
503,72	28154,85
503,919	28466,9
504,117	28532,79
504,316	28446,07
504,515	28809
504,713	29111,03
504,912	29063,16
505,111	29013,09
505,309	29482,77
505,508	29305,72
505,707	29805,04
505,905	29291,69
506,104	29895,37
506,302	29924,01
506,501	30265,11
506,7	30035,77
506,898	30413,32
507,097	30133,92
507,295	30642,85
507,494	30208,62
507,692	30753,41
507,891	30845,35
508,089	31090,1
508,288	31108,53
508,486	31370,31
508,685	31003,58
508,883	31549,37
509,082	31477,06
509,28	31945,34
509,478	31497,69
509,677	32242,77
509,875	32359,34
510,073	32619,52
510,272	32485,52
510,47	32763,53
510,669	32586,07
510,867	33163,51
511,065	32588,27
511,263	33460,54
511,462	33322,74
511,66	33479,16
511,858	33638,2
512,056	34114,09
512,255	33683,46
512,453	34192,2
512,651	34073,23
512,849	34381,87
513,048	33962,47
513,246	34480,22
513,444	34730,58
513,642	34941,89
513,84	34757,82
514,038	35286,99
514,236	35125,15
514,435	35353,88
514,633	35239,52
514,831	35762,88
515,029	35780,9
515,227	36082,74
515,425	35702,39
515,623	36169,67
515,821	36259,8
516,019	36506,15
516,217	36400
516,415	36892,31
516,613	36480,52
516,811	36909,54
517,009	36842,64
517,207	37493,78
517,405	37399,25
517,602	37684,86
517,8	37278,87
517,998	37537,45
518,196	37987,9
518,394	38082,04
518,592	37792,22
518,79	38191,8
518,987	37839,29
519,185	38313,37
519,383	38286,93
519,581	38585,97
519,779	38016,74
519,976	38988,95
520,174	38518,87
520,372	39031,81
520,57	38469,4
520,767	39079,48
520,965	38605,8
521,163	39027,41
521,36	39030,61
521,558	39020
521,756	38733,58
521,953	39245,92
522,151	39073,07
522,349	39119,34
522,546	39011,38
522,744	39216,48
522,941	38900,02
523,139	39339,46
523,336	39736,44
523,534	40012,64
523,731	39292,59
523,929	39683,96
524,126	39403,95
524,324	39452,82
524,521	39616,26
524,719	39669,54
524,916	39299
525,114	39369,5
525,311	39148,98
525,509	39684,76
525,706	39257,14
525,903	39490,88
526,101	39582,01
526,298	39710,6
526,496	39376,31
526,693	39944,14
526,89	39322,24
527,088	39799,53
527,285	39345,07
527,482	39698,98
527,679	39385,73
527,877	39720,41
528,074	39545,56
528,271	39964,37
528,468	39886,45
528,666	39870,23
528,863	39565,39
529,06	40268,01
529,257	39535,94
529,454	39746,65
529,652	39779,9
529,849	40078,53
530,046	39661,33
530,243	40121,39
530,44	39808,74
530,637	39957,36
530,834	39695,58
531,031	39905,28
531,228	39735,03
531,425	40253,79
531,622	39940,13
531,819	40322,08
532,016	39922,1
532,213	39882,65
532,41	40211,72
532,607	40359,34
532,804	40047,89
533,001	40403,4
533,198	40324,49
533,395	40502,15
533,592	39895,27
533,789	40866,67
533,986	40407,61
534,183	41096,61
534,38	40692,02
534,576	41102,02
534,773	40306,26
534,97	40664,78
535,167	40433,65
535,364	41257,24
535,561	40418,02
535,757	41070,57
535,954	40772,14
536,151	40858,46
536,348	40801,98
536,544	41004,87
536,741	40560,83
536,938	41257,04
537,134	40769,93
537,331	41547,26
537,528	40799,98
537,724	41413,47
537,921	40657,17
538,118	41733,93
538,314	40719,86
538,511	41620,77
538,707	41117,24
538,904	41541,45
539,101	41164,31
539,297	41722,11
539,494	41206,97
539,69	41623,17
539,887	41505
540,083	42132,71
540,28	41704,69
540,476	41839,88
540,673	41237,21
540,869	42227,85
541,066	41759,77
541,262	42229,85
541,458	42035,97
541,655	42143,73
541,851	42259,29
542,048	42533,29
542,244	42243,47
542,44	42276,12
542,637	42014,14
542,833	42921,25
543,029	42648,86
543,226	43010,18
543,422	42647,26
543,618	43075,28
543,814	42731,38
544,011	43194,65
544,207	42450,37
544,403	43005,77
544,599	43146,18
544,796	43346,87
544,992	43096,91
545,188	43407,16
545,384	43478,86
545,58	43555,77
545,776	43469,25
545,972	43613,46
546,169	43241,92
546,365	43867,82
546,561	43833,78
546,757	44105,57
546,953	43876,04
547,149	44317,08
547,345	43789,71
547,541	44313,27
547,737	43504,5
547,933	44116,38
548,129	43830,37
548,325	44682,61
548,521	43989,4
548,717	44934,57
548,913	43828,97
549,109	44652,76
549,305	44236,96
549,501	44645,55
549,697	44432,24
549,892	45015,89
550,088	44430,24
550,284	44942,78
550,48	44751,71
550,676	45679,45
550,872	44428,04
551,067	45276,47
551,263	44769,53
551,459	45451,72
551,655	45184,33
551,85	45415,47
552,046	45623,37
552,242	45486,77
552,438	45184,13
552,633	45772,99
552,829	45437,9
553,025	46206,21
553,22	45727,52
553,416	45747,15
553,612	45610,95
553,807	46417,52
554,003	46377,46
554,198	46463,39
554,394	46096,46
554,59	47144,17
554,785	45842,89
554,981	47058,45
555,176	46535,09
555,372	46769,83
555,567	46861,36
555,763	47372,91
555,958	46749,4
556,154	47140,17
556,349	47368,7
556,545	47226,49
556,74	46955,3
556,936	47571,99
557,131	47251,13
557,326	47266,35
557,522	47698,98
557,717	47774,09
557,912	47399,54
558,108	47973,38
558,303	47557,97
558,498	48482,31
558,694	48062,51
558,889	48288,63
559,084	48358,33
559,28	48720,26
559,475	48536,79
559,67	48791,36
559,865	48749,7
560,061	48867,07
560,256	49034,11
560,451	48914,54
560,646	48435,25
560,841	49634,98
561,037	49021,09
561,232	49521,42
561,427	49193,34
561,622	49867,12
561,817	49148,08
562,012	49698,48
562,207	49938,62
562,402	50176,17
562,597	49610,75
562,792	50000,31
562,987	50207,81
563,182	50282,12
563,377	49852,7
563,572	51188,04
563,767	50263,5
563,962	50517,46
564,157	50676,89
564,352	50610
564,547	50846,34
564,742	51243,52
564,937	50800,27
565,132	51330,04
565,327	51030,21
565,522	51372,9
565,716	50970,92
565,911	51647,3
566,106	51239,31
566,301	51978,78
566,496	51327,44
566,691	52266,2
566,885	51799,32
567,08	52404
567,275	51826,56
567,47	52466,09
567,664	51757,06
567,859	52436,25
568,054	52259,39
568,248	52844,04
568,443	52615,3
568,638	53126,65
568,832	52594,07
569,027	53209,77
569,222	52808,79
569,416	52985,64
569,611	53133,26
569,805	53452,72
570	53410,66
570,195	53246,22
570,389	53569,09
570,584	53414,26
570,778	53100,61
570,973	54440,95
571,167	53397,84
571,362	54373,25
571,556	53738,13
571,751	54549,31
571,945	53751,75
572,139	54401,69
572,334	54299,95
572,528	54505,04
572,723	54225,44
572,917	54982,54
573,111	54509,85
573,306	54893,01
573,5	54927,26
573,694	54818,3
573,889	54863,16
574,083	55800,32
574,277	55041,62
574,472	55285,78
574,666	55201,65
574,86	55900,67
575,054	55609,85
575,249	56503,14
575,443	55517,91
575,637	56042,27
575,831	55870,42
576,025	56377,76
576,219	55435,79
576,414	56465,69
576,608	56025,65
576,802	56753,3
576,996	56254,18
577,19	56586,66
577,384	56472,7
577,578	56612,5
577,772	56049,28
577,966	57425,28
578,16	56332,49
578,354	57238,81
578,548	56569,44
578,742	57205,56
578,936	56718,85
579,13	57456,12
579,324	57132,25
579,518	57466,54
579,712	56891,3
579,906	57688,06
580,1	57061,75
580,294	58110,07
580,488	57179,12
580,682	58009,72
580,875	57613,15
581,069	57960,25
581,263	57803,03
581,457	58324,98
581,651	58092,85
581,845	58360,83
582,038	57638,39
582,232	58672,08
582,426	57648,8
582,62	59001,56
582,813	58063
583,007	58809,28
583,201	57837,47
583,394	58845,14
583,588	58535,69
583,782	59014,78
583,975	58865,77
584,169	59592,62
584,363	59197,05
584,556	59650,5
584,75	58987,34
584,943	59511,9
585,137	59145,97
585,33	59572,79
585,524	59208,66
585,718	59997,01
585,911	59079,88
586,105	59947,93
586,298	59147,37
586,491	60036,66
586,685	59732,42
586,878	60091,94
587,072	59600,43
587,265	59986,99
587,459	59466,64
587,652	60538,19
587,845	59511,7
588,039	60596,27
588,232	60017,03
588,426	60523,37
588,619	59874,03
588,812	60219,53
589,005	59834,17
589,199	60439,85
589,392	59952,54
589,585	60545,8
589,779	60071,31
589,972	60608,89
590,165	60123,19
590,358	60687,21
590,551	60176,47
590,745	60626,52
590,938	60232,15
591,131	60907,53
591,324	58756,81
591,517	61010,07
591,71	60274,81
591,904	61118,83
592,097	60594,87
592,29	61035,91
592,483	60357,33
592,676	60885,29
592,869	60156,64
593,062	60908,73
593,255	60057,69
593,448	60632,13
593,641	60315,67
593,834	60929,36
594,027	60394,38
594,22	60980,63
594,413	60521,37
594,606	61032,71
594,799	60492,72
594,992	61106,41
595,184	60376,76
595,377	60906,12
595,57	60522,37
595,763	61125,64
595,956	60354,72
596,149	61087,59
596,341	60861,46
596,534	61040,12
596,727	60836,02
596,92	61030,3
597,113	60700,02
597,305	60957,4
597,498	60612,1
597,691	60936,97
597,883	60682,4
598,076	60784,75
598,269	60623,31
598,462	60955,59
598,654	60805,38
598,847	60919,74
599,039	60841,43
599,232	61108,82
599,425	60713,24
599,617	60717,05
599,81	60794,36
600,002	60801,77
600,195	60044,27
600,387	60910,53
600,58	60140,21
600,772	60879,08
600,965	59958,35
601,157	60622,91
601,35	60350,32
601,542	60520,76
601,735	60152,83
601,927	60770,93
602,12	59865,41
602,312	60594,67
602,504	59733,82
602,697	60055,09
602,889	59983,99
603,082	60183,68
603,274	60004,82
603,466	60369,95
603,659	59571,39
603,851	59875,83
604,043	59539,94
604,235	60113,57
604,428	58972,92
604,62	59955,75
604,812	59547,55
605,004	59996,4
605,197	59324,83
605,389	59984,79
605,581	58995,15
605,773	59665,12
605,965	58940,47
606,157	59582,8
606,349	58740,38
606,542	59184,03
606,734	58655,06
606,926	59222,68
607,118	58430,13
607,31	59034,01
607,502	58030,35
607,694	59062,45
607,886	57816,04
608,078	58971,32
608,27	57989,9
608,462	58491,22
608,654	57785,4
608,846	58653,66
609,038	57839,68
609,23	58490,22
609,422	58014,53
609,614	58045,78
609,805	57775,99
609,997	57782,8
610,189	57988,09
610,381	58431,34
610,573	57433,89
610,765	58188,18
610,957	57525,02
611,148	57815,44
611,34	57240,41
611,532	58344,21
611,724	57661,42
611,915	57911,78
612,107	57359,18
612,299	58432,54
612,491	57379,61
612,682	57924,6
612,874	57125,64
613,066	57882,94
613,257	57010,48
613,449	57846,89
613,64	57471,74
613,832	57304,3
614,024	57598,13
614,215	57441,1
614,407	57534,24
614,598	57522,82
614,79	57349,17
614,981	57772,38
615,173	57418,87
615,364	58016,33
615,556	57378,81
615,747	58427,73
615,939	57069,96
616,13	57891,75
616,322	57583,91
616,513	57805,23
616,705	57132,05
616,896	58181,97
617,087	57274,06
617,279	58071,21
617,47	57189,14
617,661	58356,43
617,853	57426,68
618,044	57935,42
618,235	57610,75
618,427	57795,81
618,618	57561,07
618,809	57907,38
619	57374,2
619,192	57811,24
619,383	57168,1
619,574	57675,24
619,765	57039,12
619,957	57963,26
620,148	56925,75
620,339	58035,56
620,53	57147,68
620,721	57416,06
620,912	56660,77
621,103	57736,93
621,294	56899,52
621,485	57272,66
621,677	56568,24
621,868	57018,69
622,059	55921,1
622,25	56678,39
622,441	55898,26
622,632	55982,19
622,823	55518,51
623,014	55549,76
623,205	55307,21
623,395	55078,68
623,586	54562,93
623,777	55204,86
623,968	54201,2
624,159	54647,65
624,35	54137,31
624,541	54419,92
624,732	53976,68
624,923	54264,7
625,113	53631,18
625,304	53223,39
625,495	52909,53
625,686	53174,11
625,877	52815,6
626,067	52748,9
626,258	52596,68
626,449	52432,24
626,639	51854,2
626,83	52172,66
627,021	51460,03
627,211	51547,36
627,402	50904,22
627,593	51211,07
627,783	50755,41
627,974	50813,09
628,165	50093,25
628,355	50254,88
628,546	49705,29
628,736	50180,17
628,927	49208,17
629,117	49566,28
629,308	48928,96
629,498	48965,61
629,689	48182,48
629,879	48999,66
630,07	48331,29
630,26	48037,67
630,451	47591,02
630,641	48193,29
630,832	47247,72
631,022	47448,82
631,212	46813,09
631,403	46785,25
631,593	46004,52
631,784	46701,13
631,974	45917,4
632,164	46624,42
632,355	45709,69
632,545	46057,8
632,735	45622,97
632,925	45189,94
633,116	45069,97
633,306	44675,6
633,496	44443,46
633,686	44814,6
633,876	44086,74
634,067	44120,59
634,257	43623,87
634,447	43864,82
634,637	43661,93
634,827	43512,11
635,017	42725,37
635,208	43317,23
635,398	42649,66
635,588	43280,57
635,778	42095,05
635,968	43030,81
636,158	41997,11
636,348	42453,57
636,538	41905,58
636,728	42249,48
636,918	41362,99
637,108	41767,18
637,298	41105,02
637,488	41432,89
637,678	40744,1
637,868	40837,23
638,057	40376,16
638,247	40597,48
638,437	40056,7
638,627	40554,22
638,817	39356,08
639,007	40213,93
639,197	39253,74
639,386	39434,4
639,576	38692,72
639,766	39006,18
639,956	38568,14
640,145	38696,93
640,335	38202,21
640,525	38720,36
640,715	38078,63
640,904	38284,33
641,094	37242,42
641,284	37939,43
641,473	37364,6
641,663	37256,04
641,853	37044,13
642,042	37237,81
642,232	36239,57
642,421	36583,46
642,611	36453,08
642,801	36410,41
642,99	36226,95
643,18	36491,93
643,369	35871,63
643,559	35905,08
643,748	35670,34
643,938	35357,29
644,127	34784,26
644,317	35325,04
644,506	34633,64
644,695	34715,56
644,885	34838,74
645,074	34326,59
645,264	34241,47
645,453	34035,77
645,642	34065,62
645,832	34095,06
646,021	33559,68
646,21	33850,7
646,4	33219,79
646,589	33477,96
646,778	32833,03
646,967	33016,49
647,157	32271,21
647,346	32715,06
647,535	32148,44
647,724	32217,34
647,913	32000,22
648,103	32107,78
648,292	31536,35
648,481	31872,84
648,67	31696,98
648,859	31492,28
649,048	31395,74
649,237	31138,97
649,427	30767,83
649,616	30914,65
649,805	30258,9
649,994	30487,63
650,183	30073,63
650,372	30502,45
650,561	29663,83
650,75	30051
650,939	29438,91
651,128	29785,41
651,317	29265,46
651,506	29335,76
651,694	28931,37
651,883	29250,84
652,072	28707,05
652,261	28929,97
652,45	28229,96
652,639	28735,09
652,828	28147,24
653,016	28395,2
653,205	27743,85
653,394	28065,32
653,583	27674,55
653,772	27993,61
653,96	27456,43
654,149	27504,5
654,338	26916,45
654,527	27252,34
654,715	26713,96
654,904	27121,55
655,093	26407,31
655,281	26707,15
655,47	26202,82
655,658	26203,42
655,847	26029,77
656,036	25924,21
656,224	25398,85
656,413	25715,71
656,601	25230,01
656,79	25538,05
656,978	25007,68
657,167	25328,35
657,355	24690,83
657,544	25314,93
657,732	24535,8
657,921	24664,39
658,109	24369,56
658,298	24511,16
658,486	23944,14
658,675	24135,02
658,863	24074,73
659,051	23910,49
659,24	23321,24
659,428	23612,26
659,616	23408,77
659,805	23277,98
659,993	22737,19
660,181	23230,51
660,37	22767,24
660,558	22710,96
660,746	22623,63
660,934	22572,55
661,123	22188,2
661,311	22432,15
661,499	22133,32
661,687	21998,12
661,875	21682,06
662,064	21738,75
662,252	21364
662,44	21301,31
662,628	21283,29
662,816	21364,2
663,004	21187,35
663,192	21017,1
663,38	20859,07
663,568	20799,38
663,756	20687,02
663,944	20593,09
664,132	20279,63
664,32	20505,56
664,508	19965,58
664,696	20208,53
664,884	19745,46
665,072	19896,28
665,26	19327,85
665,448	19784,11
665,636	19344,68
665,824	19580,22
666,012	19142,18
666,199	19192,86
666,387	18845,95
666,575	18914,85
666,763	18775,45
666,951	18774,45
667,139	18586,98
667,326	18640,05
667,514	18068,23
667,702	18272,92
667,889	18076,64
668,077	18078,44
668,265	17792,02
668,453	17830,28
668,64	17608,96
668,828	17602,55
669,016	17137,48
669,203	17490,39
669,391	17031,52
669,578	17353,19
669,766	16943,39
669,954	17077,39
670,141	16758,93
670,329	16670,6
670,516	16600,7
670,704	16533,2
670,891	16176,68
671,079	16342,32
671,266	16055,51
671,454	16141,23
671,641	15934,53
671,828	15882,06
672,016	15509,92
672,203	15783,91
672,391	15419,39
672,578	15536,96
672,765	15113,34
672,953	15423,99
673,14	15120,15
673,327	15077,89
673,515	15088,91
673,702	14984,76
673,889	14622,43
674,077	14782,26
674,264	14587,38
674,451	14560,54
674,638	14326,8
674,825	14427,95
675,013	14051,4
675,2	14235,07
675,387	13932,63
675,574	13888,97
675,761	13851,31
675,948	13768,39
676,136	13654,83
676,323	13645,41
676,51	13340,57
676,697	13598,55
676,884	13276,68
677,071	13450,13
677,258	13121,65
677,445	13125,06
677,632	12923,97
677,819	12905,54
678,006	12750,52
678,193	12728,89
678,38	12629,74
678,567	12584,28
678,754	12598,7
678,94	12590,48
679,127	12351,34
679,314	12313,08
679,501	12146,84
679,688	12289,65
679,875	11980,6
680,062	12109,39
680,248	11870,64
680,435	11937,74
680,622	11796,73
680,809	11863,23
680,995	11544,17
681,182	11694,99
681,369	11469,86
681,556	11532,75
681,742	11303,42
681,929	11306,82
682,116	11283,59
682,302	11066,07
682,489	11025,42
682,675	10924,87
682,862	10912,85
683,049	10891,82
683,235	10729,79
683,422	10657,48
683,608	10577,77
683,795	10561,14
683,981	10296,36
684,168	10462,8
684,354	10301,77
684,541	10451,98
684,727	10254,5
684,914	10260,11
685,1	10022,36
685,287	9974,49
685,473	9831,49
685,659	9893,98
685,846	9711,31
686,032	9777,81
686,218	9551,88
686,405	9735,55
686,591	9516,23
686,777	9595,54
686,964	9371,02
687,15	9511,22
687,336	9249,64
687,522	9349,79
687,709	9113,84
687,895	9222,6
688,081	9052,56
688,267	9073,99
688,454	8971,44
688,64	8917,96
688,826	8850,86
689,012	8848,06
689,198	8715,27
689,384	8746,51
689,57	8503,56
689,756	8592,29
689,942	8480,13
690,128	8530,6
690,314	8267,42
690,501	8348,74
690,687	8329,11
690,873	8269,42
691,058	8055,11
691,244	8165,67
691,43	7967,98
691,616	8124,61
691,802	7880,26
691,988	8048,7
692,174	7880,26
692,36	7861,63
692,546	7698,19
692,732	7782,31
692,917	7662,94
693,103	7727,23
693,289	7601,85
693,475	7523,14
693,661	7339,47
693,846	7588,83
694,032	7245,34
694,218	7370,72
694,404	7309,23
694,589	7218,7
694,775	7178,44
694,961	7190,26
695,146	6990,17
695,332	7095,32
695,518	7026,02
695,703	6972,14
695,889	6928,88
696,074	6907,85
696,26	6730,99
696,446	6762,84
696,631	6716,97
696,817	6797,69
697,002	6598,4
697,188	6655,68
697,373	6421,34
697,559	6579,37
697,744	6383,29
697,93	6509,87
698,115	6273,33
698,3	6346,83
698,486	6254,5
698,671	6351,84
698,857	6153,55
699,042	6106,08
699,227	6167,17
699,413	6096,67
699,598	6043,59
699,783	6107,69
699,969	5945,45
700,154	5913,61
700,339	5781,01
700,524	5857,52
700,71	5730,14
700,895	5804,45
701,08	5759,78
701,265	5670,45
701,45	5706,31
701,636	5635,4
701,821	5549,48
702,006	5515,03
702,191	5471,97
702,376	5405,47
702,561	5363,61
702,746	5360
702,931	5408,87
703,116	5397,86
703,301	5196,77
703,486	5264,06
703,671	5149,5
703,856	5101,63
704,041	5173,33
704,226	5162,52
704,411	4971,24
704,596	4985,26
704,781	4961,63
704,966	5069,38
705,151	4923,57
705,336	4898,93
705,521	4844,46
705,706	4981,25
705,89	4780,16
706,075	4804
706,26	4748,12
706,445	4765,54
706,63	4633,35
706,814	4658,79
706,999	4559,04
707,184	4637,96
707,368	4565,45
707,553	4598,1
707,738	4446,68
707,923	4538,01
708,107	4417,44
708,292	4488,34
708,476	4395
708,661	4324,3
708,846	4360,96
709,03	4390,4
709,215	4295,86
709,399	4313,69
709,584	4163,07
709,768	4284,64
709,953	4195,11
710,137	4177,09
710,322	4044,1
710,506	4027,47
710,691	4023,47
710,875	4030,68
711,06	3986,61
711,244	4028,67
711,429	3872,85
711,613	3921,72
711,797	3882,86
711,982	3838,8
712,166	3857,43
712,35	3782,52
712,535	3803,35
712,719	3848,01
712,903	3713,62
713,088	3692,79
713,272	3641,91
713,456	3628,49
713,64	3615,07
713,824	3563,6
714,009	3629,69
714,193	3513,13
714,377	3452,04
714,561	3468,66
714,745	3513,13
714,929	3547,38
715,113	3392,95
715,298	3391,15
715,482	3415,18
715,666	3347,69
715,85	3293,01
716,034	3283,19
716,218	3164,22
716,402	3230,12
716,586	3183,45
716,77	3216,3
716,954	3164,02
717,138	3144,39
717,322	3019,01
717,506	3125,76
717,689	3052,26
717,873	2986,36
718,057	3010
718,241	3009,6
718,425	2933,49
718,609	2937,49
718,793	2899,44
718,976	2902,44
719,16	2878,01
719,344	2884,82
719,528	2849,56
719,711	2783,67
719,895	2799,09
720,079	2866,39
720,263	2791,48
720,446	2708,76
720,63	2583,38
720,814	2571,56
720,997	2639,86
721,181	2635,25
721,364	2595
721,548	2598
721,732	2576,17
721,915	2648,87
722,099	2561,55
722,282	2595,2
722,466	2537,31
722,649	2443,98
722,833	2477,62
723,016	2486,84
723,2	2477,02
723,383	2459
723,567	2454,19
723,75	2435,56
723,934	2392,1
724,117	2460,4
724,3	2376,68
724,484	2354,85
724,667	2335,62
724,85	2392,7
725,034	2325,8
725,217	2280,54
725,4	2312,59
725,584	2364,86
725,767	2160,97
725,95	2293,96
726,133	2154,76
726,317	2223,06
726,5	2179,79
726,683	2217,65
726,866	2179,39
727,049	2150,75
727,232	2159,16
727,416	2125,31
727,599	2094,67
727,782	2053,41
727,965	2038,19
728,148	2174,59
728,331	2154,76
728,514	2046
728,697	2035,78
728,88	1972,09
729,063	2024,57
729,246	1982,51
729,429	1992,32
729,612	1961,68
729,795	1967,89
729,978	1983,71
730,161	1955,07
730,344	1907,8
730,526	1910,8
730,709	1916,41
730,892	1907,8
731,075	1821,87
731,258	1842,7
731,441	1884,36
731,623	1829,29
731,806	1768,6
731,989	1787,62
732,172	1744,36
732,354	1788,43
732,537	1827,28
732,72	1695,49
732,903	1794,63
733,085	1697,69
733,268	1740,96
733,451	1682,87
733,633	1751,57
733,816	1696,29
733,998	1642,41
734,181	1556,49
734,364	1618,58
734,546	1632,2
734,729	1602,36
734,911	1614,97
735,094	1591,34
735,276	1606,16
735,459	1561,1
735,641	1526,25
735,824	1514,63
736,006	1518,43
736,188	1539,26
736,371	1481,78
736,553	1548,88
736,736	1477,37
736,918	1481,98
737,1	1455,74
737,283	1442,12
737,465	1453,74
737,647	1410,48
737,83	1334,77
738,012	1429,1
738,194	1438,72
738,376	1338,97
738,559	1353,8
738,741	1391,25
738,923	1361,61
739,105	1408,27
739,287	1354,2
739,469	1387,64
739,652	1377,23
739,834	1344,98
740,016	1363,41
740,198	1347,19
740,38	1262,06
740,562	1246,04
740,744	1355,6
740,926	1230,02
741,108	1238,23
741,29	1247,84
741,472	1248,24
741,654	1244,64
741,836	1252,85
742,018	1253,25
742,2	1249,44
742,382	1183,35
742,564	1237,03
742,746	1201,78
742,928	1182,95
743,109	1111,44
743,291	1095,02
743,473	1120,46
743,655	1117,85
743,837	1114,25
744,019	1103,23
744,2	1127,07
744,382	1084,61
744,564	1046,15
744,746	1040,34
744,927	1096,42
745,109	1062,97
745,291	1104,43
745,472	1042,34
745,654	1081,2
745,836	1042,95
746,017	1027,12
746,199	1057,57
746,38	1024,52
746,562	905,15
746,744	1029,13
746,925	987,87
747,107	1031,53
747,288	1001,49
747,47	931,58
747,651	908,95
747,833	876,5
748,014	929,78
748,195	995,08
748,377	929,98
748,558	920,57
748,74	947,81
748,921	941,6
749,102	945,6
749,284	874,1
749,465	985,86
749,646	902,34
749,828	872,9
750,009	884,32
750,19	901,34
750,372	941,6
750,553	882,31
750,734	864,69
750,915	764,54
751,096	879,71
751,278	841,05
751,459	901,14
751,64	795,19
751,821	878,31
752,002	775,76
752,183	814,81
752,364	803,4
752,546	816,82
752,727	786,97
752,908	831,24
753,089	758,73
753,27	819,02
753,451	770,35
753,632	768,75
753,813	720,48
753,994	738,5
754,175	738,1
754,356	792,38
754,536	769,75
754,717	693,04
754,898	815,62
755,079	786,57
755,26	749,92
755,441	773,15
755,622	746,52
755,802	784,57
755,983	714,07
756,164	721,68
756,345	750,72
756,526	728,49
756,706	732,9
756,887	740,51
757,068	761,94
757,248	736,9
757,429	711,87
757,61	691,84
757,79	706,06
757,971	706,86
758,152	678,22
758,332	600,7
758,513	717,87
758,693	702,85
758,874	708,46
759,055	746,52
759,235	683,62
759,416	657,39
759,596	661,59
759,777	737,5
759,957	615,93
760,137	715,67
760,318	688,63
760,498	708,46
760,679	657,39
760,859	677,62
761,039	712,47
761,22	694,84
761,4	696,24
761,581	717,27
761,761	653,98
761,941	744,71
762,121	652,18
762,302	604,11
762,482	703,25
762,662	592,49
762,842	648,57
763,023	670,61
763,203	586,68
763,383	668
763,563	641,96
763,743	676,41
763,923	625,14
764,104	689,63
764,284	592,69
764,464	639,16
764,644	603,51
764,824	660,39
765,004	584,68
765,184	638,16
765,364	568,86
765,544	596,9
765,724	577,67
765,904	606,31
766,084	594,7
766,264	585,88
766,444	607,91
766,624	584,48
766,804	514,58
766,983	615,53
767,163	627,14
767,343	563,25
767,523	588,09
767,703	617,53
767,883	605,31
768,062	501,96
768,242	551,03
768,422	529,6
768,602	542,62
768,781	505,77
768,961	479,53
769,141	510,97
769,32	533,81
769,5	531,2
769,68	503,56
769,859	491,15
770,039	533,81
770,219	490,34
770,398	442,47
770,578	526,8
770,757	466,31
770,937	504,77
771,116	446,88
771,296	467,71
771,475	424,65
771,655	399,41
771,834	487,54
772,014	486,14
772,193	554,64
772,373	450,69
772,552	399,41
772,731	411,63
772,911	426,25
773,09	480,33
773,269	450,89
773,449	462,5
773,628	458,5
773,807	396,41
773,987	382,59
774,166	413,23
774,345	449,89
774,524	404,02
774,704	364,56
774,883	377,38
775,062	385,79
775,241	436,07
775,42	408,02
775,6	432,86
775,779	350,34
775,958	364,56
776,137	428,25
776,316	410,23
776,495	388,8
776,674	286,65
776,853	350,74
777,032	359,75
777,211	362,96
777,39	308,08
777,569	341,53
777,748	357,75
777,927	326,11
778,106	350,34
778,285	341,73
778,464	306,48
778,643	344,13
778,822	284,25
779	398,21
779,179	318,9
779,358	356,35
779,537	309,68
779,716	267,02
779,894	338,72
780,073	336,72
780,252	271,83
780,431	287,85
780,609	262,01
780,788	331,91
780,967	244,39
781,145	339,93
781,324	300,07
781,503	249,8
781,681	266,02
781,86	280,24
782,039	285,45
782,217	238,38
782,396	262,01
782,574	233,57
782,753	369,57
782,931	311,48
783,11	287,65
783,288	220,75
783,467	322,9
783,645	179,69
783,824	281,24
784,002	186,9
784,18	230,37
784,359	273,03
784,537	196,12
784,716	272,03
784,894	285,45
785,072	182,7
785,251	281,04
785,429	238,78
785,607	272,23
785,785	211,34
785,964	256,61
786,142	84,76
786,32	271,23
786,498	193,91
786,677	278,44
786,855	222,36
787,033	249,8
787,211	174,29
787,389	285,65
787,567	267,22
787,745	217,75
787,923	264,02
788,102	246,19
788,28	236,58
788,458	181,5
788,636	203,93
788,814	210,54
788,992	209,34
789,17	233,57
789,348	263,21
789,526	279,04
789,703	184,5
789,881	222,76
790,059	187,91
790,237	207,33
790,415	147,05
790,593	223,76
790,771	247,79
790,949	192,31
791,126	252,2
791,304	149,25
791,482	159,26
791,66	173,89
791,837	205,33
792,015	209,54
792,193	158,26
792,371	251,6
792,548	231,57
792,726	213,74
792,904	153,46
793,081	147,25
793,259	113
793,436	233,37
793,614	157,86
793,792	186,9
793,969	239,98
794,147	235,78
794,324	260,41
794,502	196,92
794,679	107,59
794,857	196,92
795,034	182,5
795,212	106,59
795,389	196,72
795,567	192,91
795,744	224,36
795,921	141,44
796,099	155,46
796,276	176,49
796,453	184,3
796,631	138,23
796,808	105,59
796,985	143,24
797,163	235,98
797,34	117,2
797,517	165,87
797,694	120,41
797,872	134,63
798,049	126,02
798,226	186,7
798,403	171,88
798,58	207,53
798,757	109,19
798,935	195,92
799,112	122,81
799,289	112
799,466	126,42
799,643	195,92
799,82	177,49
799,997	186,1
800,174	165,27
800,351	102,18
800,528	200,52
800,705	134,63
800,882	159,46
801,059	154,26
801,236	169,48
801,413	106,39
801,589	120,41
801,766	129,62
801,943	152,85
802,12	191,91
802,297	157,66
802,474	110,79
802,651	103,98
802,827	146,45
803,004	119,81
803,181	169,28
803,358	200,32
803,534	131,02
803,711	72,54
803,888	67,53
804,064	92,57
804,241	95,17
804,418	84,96
804,594	124,21
804,771	46,5
804,947	192,71
805,124	94,97
805,301	182,3
805,477	158,26
805,654	157,26
805,83	58,12
806,007	94,77
806,183	155,06
806,36	150,85
806,536	80,95
806,712	55,51
806,889	83,35
807,065	90,16
807,242	103,18
807,418	117
807,594	127,42
807,771	121,41
807,947	44,1
808,123	139,84
808,3	115,6
808,476	104,58
808,652	99,78
808,829	92,77
809,005	173,08
809,181	101,38
809,357	160,07
809,533	69,93
809,71	115,2
809,886	107,39
810,062	141,44
810,238	67,53
810,414	127,22
810,59	60,92
810,766	84,96
810,942	118,4
811,118	97,57
811,294	91,37
811,47	87,56
811,646	170,08
811,822	93,77
811,998	167,68
812,174	95,77
812,35	83,75
812,526	73,54
812,702	57,52
812,878	79,55
813,054	106,19
813,23	-4,57
813,405	135,43
813,581	99,38
813,757	92,77
813,933	185,3
814,109	40,09
814,284	190,31
814,46	66,13
814,636	47,3
814,812	49,71
814,987	37,69
815,163	114,8
815,339	73,54
815,514	42,9
815,69	52,71
815,866	69,13
816,041	70,74
816,217	126,42
816,392	125,01
816,568	87,96
816,743	114
816,919	90,76
817,094	89,56
817,27	41,09
817,445	112,2
817,621	57,92
817,796	113,2
817,972	56,11
818,147	60,52
818,322	60,92
818,498	165,27
818,673	70,94
818,849	72,34
819,024	31,88
819,199	81,75
819,375	90,56
819,55	112,8
819,725	120,61
819,9	75,74
820,076	131,82
820,251	32,08
820,426	138,23
820,601	135,83
820,776	84,56
820,952	101,98
821,127	95,17
821,302	120,41
821,477	70,54
821,652	83,75
821,827	76,74
822,002	60,52
822,177	46,3
822,352	55,91
822,527	101,18
822,702	22,07
822,877	70,34
823,052	67,53
823,227	76,34
823,402	81,75
823,577	100,18
823,752	96,57
823,927	19,86
824,102	142,84
824,277	157,26
824,451	77,35
824,626	35,28
824,801	54,11
824,976	146,65
825,151	79,75
825,325	98,18
825,5	65,13
825,675	102,18
825,85	126,22
826,024	112
826,199	102,38
826,374	44,9
826,548	83,15
826,723	92,97
826,897	87,76
827,072	48,1
827,247	71,34
827,421	18,86
827,596	80,35
827,77	40,49
827,945	115
828,119	33,28
828,294	129,62
828,468	39,29
828,643	60,52
828,817	72,14
828,992	59,32
829,166	14,65
829,34	119,81
829,515	110,59
829,689	104,38
829,864	68,53
830,038	60,32
830,212	112,2
830,386	23,87
830,561	130,62
830,735	38,09
830,909	124,81
831,084	26,67
831,258	83,15
831,432	62,72
831,606	62,52
831,78	65,53
831,954	154,06
832,129	78,55
832,303	69,33
832,477	47,5
832,651	116,8
832,825	18,86
832,999	133,83
833,173	16,06
833,347	37,69
833,521	60,32
833,695	100,58
833,869	72,34
834,043	36,49
834,217	17,46
834,391	42,09
834,565	37,69
834,739	51,31
834,913	22,07
835,086	27,47
835,26	11,05
835,434	41,89
835,608	82,75
835,782	78,95
835,956	25,67
836,129	9,45
836,303	114,4
836,477	50,11
836,651	43,5
836,824	74,14
836,998	32,88
837,172	54,11
837,345	119,81
837,519	41,69
837,693	61,12
837,866	58,12
838,04	14,25
838,213	-2,17
838,387	39,49
838,56	18,86
838,734	60,72
838,907	103,98
839,081	64,53
839,254	68,53
839,428	30,28
839,601	80,15
839,775	-64,06
839,948	42,29
840,122	65,33
840,295	50,91
840,468	22,07
840,642	51,11
840,815	15,46
840,988	-2,77
841,162	28,27
841,335	65,53
841,508	92,37
841,682	21,26
841,855	74,74
842,028	69,53
842,201	34,08
842,374	11,25
842,548	86,56
842,721	41,09
842,894	48,5
843,067	-43,43
843,24	-21,4
843,413	25,07
843,586	58,92
843,759	38,49
843,932	69,73
844,105	7,84
844,278	19,66
844,451	59,92
844,624	75,74
844,797	34,08
844,97	62,72
845,143	36,49
845,316	91,97
845,489	-40,02
845,662	18,06
845,835	105,79
846,008	7,84
846,18	22,87
846,353	101,98
846,526	91,77
846,699	64,53
846,872	90,16
847,044	65,13
847,217	12,45
847,39	26,87
847,563	70,14
847,735	40,29
847,908	62,92
848,081	27,07
848,253	-5,98
848,426	-7,98
848,598	106,59
848,771	72,34
848,944	-48,04
849,116	-14,99
849,289	-0,37
849,461	4,84
849,634	46,9
849,806	53,71
849,979	33,48
850,151	100,38
850,324	142,84
850,496	37,29
850,668	-31,21
850,841	16,86
851,013	88,36
851,186	7,84
851,358	31,28
851,53	62,12
851,703	42,9
851,875	21,06
852,047	12,85
852,219	-14,59
852,392	66,33
852,564	53,11
852,736	-12,79
852,908	-37,82
853,081	74,14
853,253	35,28
853,425	51,91
853,597	94,77
853,769	-5,78
853,941	70,54
854,113	6,04
854,285	64,73
854,457	45,1
854,63	40,89
854,802	82,95
854,974	11,25
855,146	79,35
855,318	115
855,489	30,88
855,661	81,75
855,833	19,26
856,005	74,34
856,177	-11,18
856,349	21,87
856,521	36,29
856,693	-59,85
856,865	-8,98
857,036	155,66
857,208	52,31
857,38	26,87
857,552	30,88
857,723	44,3
857,895	5,04
858,067	10,05
858,239	16,46
858,41	-52,44
858,582	66,53
858,754	35,48
858,925	-45,63
859,097	53,91
859,268	60,32
859,44	8,85
859,612	4,24
859,783	-53,04
859,955	-16,79
860,126	-30,61
860,298	-8,78
860,469	80,55
860,641	-15,99
860,812	-20,8
860,983	-19,6
861,155	27,27
861,326	22,87
861,498	30,88
861,669	21,87
861,84	71,54
862,012	58,92
862,183	73,74
862,354	94,97
862,526	2,44
862,697	60,72
862,868	-0,57
863,039	1,64
863,211	-46,63
863,382	15,86
863,553	-16,99
863,724	9,25
863,895	3,24
864,066	85,16
864,238	7,64
864,409	80,35
864,58	-57,85
864,751	76,74
864,922	-10,78
865,093	53,11
865,264	72,14
865,435	-1,57
865,606	44,9
865,777	16,46
865,948	45,9
866,119	68,33
866,29	89,36
866,461	7,44
866,632	-25
866,802	1,24
866,973	14,05
867,144	-11,38
867,315	24,07
867,486	43,9
867,657	40,29
867,827	78,15
867,998	62,92
868,169	-33,42
868,34	85,36
868,51	21,26
868,681	84,36
868,852	-22
869,022	67,13
869,193	99,38
869,364	40,69
869,534	-16,19
869,705	16,46
869,875	18,86
870,046	16,06
870,217	29,48
870,387	30,88
870,558	83,75
870,728	50,51
870,899	11,05
871,069	8,45
871,239	72,94
871,41	21,46
871,58	49,51
871,751	37,09
871,921	4,64
872,091	-18,19
872,262	20,46
872,432	82,75
872,602	-84,49
872,773	30,28
872,943	14,85
873,113	60,32
873,284	-21,6
873,454	24,47
873,624	25,67
873,794	25,87
873,964	37,09
874,135	6,24
874,305	1,64
874,475	26,67
874,645	-34,42
874,815	23,87
874,985	7,84
875,155	-6,58
875,325	-18,99
875,495	11,45
875,665	19,26
875,835	10,65
876,005	2,44
876,175	26,87
876,345	13,05
876,515	-21,8
876,685	78,35
876,855	80,75
877,025	-17,39
877,195	-50,04
877,365	21,46
877,534	41,29
877,704	-10,18
877,874	78,75
878,044	-6,78
878,214	61,32
878,383	32,68
878,553	59,52
878,723	-8,98
878,892	54,31
879,062	11,65
879,232	26,47
879,401	7,64
879,571	20,06
879,741	-105,32
879,91	-16,59
880,08	40,49
880,249	-8,38
880,419	8,04
880,589	7,64
880,758	39,49
880,928	57,12
881,097	-35,02
881,267	29,28
881,436	-22,4
881,605	49,71
881,775	-73,07
881,944	5,64
882,114	59,12
882,283	9,85
882,452	34,68
882,622	-9,58
882,791	-24
882,96	12,85
883,13	54,71
883,299	39,29
883,468	10,25
883,637	-13,19
883,807	42,09
883,976	-16,59
884,145	9,25
884,314	51,71
884,483	-10,78
884,652	14,05
884,822	5,24
884,991	-16,19
885,16	26,87
885,329	31,88
885,498	7,24
885,667	60,92
885,836	35,08
886,005	-8,38
886,174	52,91
886,343	44,3
886,512	22,47
886,681	40,69
886,85	65,13
887,019	59,32
887,187	43,9
887,356	42,29
887,525	-38,22
887,694	11,45
887,863	-1,17
888,032	-6,58
888,2	5,04
888,369	-9,78
888,538	32,08
888,707	4,44
888,875	-45,43
889,044	-14,79
889,213	74,54
889,381	20,06
889,55	-4,17
889,719	46,7
889,887	52,71
890,056	-65,86
890,224	91,37
890,393	11,65
890,562	89,56
890,73	18,26
890,899	59,52
891,067	39,29
891,236	3,24
891,404	74,34
891,573	-9,78
891,741	-7,78
891,909	21,87
892,078	72,34
892,246	29,88
892,415	7,44
892,583	24,47
892,751	32,88
892,92	42,9
893,088	19,46
893,256	39,89
893,424	-2,17
893,593	53,31
893,761	-15,39
893,929	-38,82
894,097	28,88
894,265	0,03
894,434	44,7
894,602	72,34
894,77	47,7
894,938	22,27
895,106	55,71
895,274	58,32
895,442	0,43
895,61	79,75
895,778	-8,78
895,946	22,87
896,114	55,91
896,282	-32,41
896,45	17,26
896,618	45,3
896,786	32,88
896,954	37,69
897,122	7,04
897,29	7,64
897,458	14,85
897,625	48,1
897,793	57,12
897,961	79,35
898,129	1,03
898,297	81,95
898,464	32,88
898,632	9,45
898,8	59,92
898,968	-21,6
899,135	70,94
899,303	-7,38
899,471	-14,39
899,638	30,88
899,806	-2,37
899,973	29,48
900,141	88,36
900,309	16,66
900,476	13,25
900,644	74,74
900,811	6,44
900,979	67,33
901,146	41,49
901,314	49,3
901,481	20,06
901,649	59,92
901,816	19,46
901,983	36,69
902,151	14,85
