Data from Subt4__19__14-42-59-795.txt Node

Date: Thu Feb 19 14:42:59 CET 2026
User: Versuch 234
Spectrometer: USB4F05580
Trigger mode: 4
Integration Time (sec): 1,000000E-2
Scans to average: 1
Electric dark correction enabled: true
Nonlinearity correction enabled: false
Boxcar width: 0
XAxis mode: Wavelengths
Number of Pixels in Spectrum: 3648
>>>>>Begin Spectral Data<<<<<
197,409	77,78
197,623	77,78
197,837	77,78
198,051	165,91
198,265	165,91
198,479	-24,37
198,693	-46,4
198,907	-50,41
199,122	25,7
199,336	1,67
199,55	13,69
199,763	39,72
199,977	39,72
200,191	45,73
200,405	19,7
200,619	-26,37
200,833	-38,39
201,047	9,68
201,261	43,73
201,475	83,79
201,689	57,75
201,903	49,74
202,117	-4,34
202,331	-52,41
202,545	-52,41
202,758	-18,36
202,972	-40,39
203,186	-62,42
203,4	37,72
203,614	-6,34
203,828	-106,49
204,041	31,71
204,255	65,76
204,469	29,71
204,683	7,68
204,897	33,72
205,11	129,85
205,324	37,72
205,538	-10,35
205,752	31,71
205,965	21,7
206,179	59,75
206,393	-112,5
206,606	-12,35
206,82	-32,38
207,034	15,69
207,248	-16,36
207,461	11,68
207,675	-0,33
207,889	7,68
208,102	11,68
208,316	7,68
208,529	-40,39
208,743	-52,41
208,957	45,73
209,17	-64,43
209,384	47,74
209,597	-58,42
209,811	23,7
210,025	79,78
210,238	9,68
210,452	5,67
210,665	27,71
210,879	-24,37
211,092	37,72
211,306	1,67
211,519	-34,38
211,733	11,68
211,946	87,79
212,16	61,76
212,373	3,67
212,587	31,71
212,8	-4,34
213,014	15,69
213,227	-4,34
213,44	-16,36
213,654	115,83
213,867	101,81
214,081	91,8
214,294	37,72
214,507	41,73
214,721	7,68
214,934	13,69
215,148	29,71
215,361	71,77
215,574	57,75
215,788	-98,48
216,001	85,79
216,214	-14,35
216,428	-2,34
216,641	7,68
216,854	-2,34
217,067	9,68
217,281	9,68
217,494	43,73
217,707	41,73
217,92	-6,34
218,134	29,71
218,347	115,83
218,56	89,8
218,773	-48,4
218,986	49,74
219,2	43,73
219,413	-24,37
219,626	-32,38
219,839	71,77
220,052	33,72
220,265	51,74
220,479	71,77
220,692	27,71
220,905	-32,38
221,118	49,74
221,331	-44,4
221,544	25,7
221,757	49,74
221,97	61,76
222,183	-66,43
222,396	3,67
222,609	39,72
222,822	-72,44
223,035	57,75
223,249	29,71
223,462	-4,34
223,675	-8,35
223,887	23,7
224,1	67,76
224,313	47,74
224,526	125,85
224,739	15,69
224,952	115,83
225,165	-74,44
225,378	-20,36
225,591	113,83
225,804	13,69
226,017	49,74
226,23	19,7
226,443	17,69
226,656	23,7
226,868	-30,38
227,081	85,79
227,294	11,68
227,507	3,67
227,72	-66,43
227,933	43,73
228,145	13,69
228,358	59,75
228,571	11,68
228,784	-36,39
228,997	-24,37
229,209	111,83
229,422	31,71
229,635	29,71
229,848	5,67
230,06	-54,41
230,273	-80,45
230,486	-6,34
230,698	-112,5
230,911	5,67
231,124	-0,33
231,336	-110,49
231,549	19,7
231,762	81,79
231,974	-54,41
232,187	-8,35
232,4	43,73
232,612	-4,34
232,825	-16,36
233,038	13,69
233,25	71,77
233,463	-2,34
233,675	43,73
233,888	35,72
234,1	145,88
234,313	-18,36
234,526	83,79
234,738	-22,37
234,951	-0,33
235,163	-32,38
235,376	13,69
235,588	-112,5
235,801	-36,39
236,013	-14,35
236,226	49,74
236,438	29,71
236,65	61,76
236,863	-42,39
237,075	139,87
237,288	-76,44
237,5	-10,35
237,713	-124,51
237,925	-56,42
238,137	-26,37
238,35	5,67
238,562	-28,37
238,774	101,81
238,987	171,92
239,199	45,73
239,411	17,69
239,624	55,75
239,836	1,67
240,048	11,68
240,261	41,73
240,473	5,67
240,685	33,72
240,897	-110,49
241,11	17,69
241,322	21,7
241,534	29,71
241,746	17,69
241,959	77,78
242,171	75,78
242,383	-12,35
242,595	-64,43
242,807	-30,38
243,02	51,74
243,232	47,74
243,444	33,72
243,656	133,86
243,868	23,7
244,08	-20,36
244,293	-62,42
244,505	21,7
244,717	-22,37
244,929	-22,37
245,141	-26,37
245,353	-14,35
245,565	49,74
245,777	-88,46
245,989	-16,36
246,201	-8,35
246,413	127,85
246,625	-28,37
246,837	-68,43
247,049	43,73
247,261	41,73
247,473	7,68
247,685	13,69
247,897	49,74
248,109	-44,4
248,321	63,76
248,533	-148,55
248,745	-12,35
248,957	35,72
249,169	-22,37
249,381	3,67
249,593	-32,38
249,804	11,68
250,016	65,76
250,228	-16,36
250,44	43,73
250,652	17,69
250,864	13,69
251,075	-30,38
251,287	-50,41
251,499	91,8
251,711	17,69
251,923	-42,39
252,134	-32,38
252,346	-14,35
252,558	17,69
252,77	15,69
252,982	-12,35
253,193	59,75
253,405	1,67
253,617	25,7
253,828	-64,43
254,04	73,77
254,252	85,79
254,463	67,76
254,675	29,71
254,887	-72,44
255,098	3,67
255,31	-52,41
255,522	1,67
255,733	-56,42
255,945	7,68
256,157	19,7
256,368	-60,42
256,58	49,74
256,791	-10,35
257,003	73,77
257,214	29,71
257,426	3,67
257,637	-22,37
257,849	47,74
258,061	27,71
258,272	73,77
258,484	5,67
258,695	-4,34
258,907	1,67
259,118	91,8
259,329	-0,33
259,541	-40,39
259,752	103,82
259,964	91,8
260,175	-16,36
260,387	-124,51
260,598	105,82
260,809	-10,35
261,021	11,68
261,232	-40,39
261,444	-18,36
261,655	89,8
261,866	-2,34
262,078	7,68
262,289	39,72
262,5	11,68
262,712	-12,35
262,923	3,67
263,134	-28,37
263,345	5,67
263,557	-118,51
263,768	-42,39
263,979	-62,42
264,191	-32,38
264,402	-48,4
264,613	47,74
264,824	-6,34
265,035	-72,44
265,247	65,76
265,458	-42,39
265,669	-54,41
265,88	43,73
266,091	-0,33
266,302	37,72
266,514	3,67
266,725	5,67
266,936	7,68
267,147	-64,43
267,358	-38,39
267,569	77,78
267,78	57,75
267,991	-10,35
268,202	37,72
268,414	73,77
268,625	-8,35
268,836	-38,39
269,047	113,83
269,258	-50,41
269,469	15,69
269,68	-26,37
269,891	-18,36
270,102	113,83
270,313	-94,47
270,524	29,71
270,735	65,76
270,945	19,7
271,156	151,89
271,367	-6,34
271,578	71,77
271,789	-36,39
272	47,74
272,211	11,68
272,422	45,73
272,633	41,73
272,844	-96,47
273,054	-98,48
273,265	1,67
273,476	-46,4
273,687	-44,4
273,898	-52,41
274,109	47,74
274,319	-24,37
274,53	95,81
274,741	1,67
274,952	-54,41
275,162	67,76
275,373	57,75
275,584	-34,38
275,795	-24,37
276,005	-10,35
276,216	5,67
276,427	61,76
276,637	23,7
276,848	-48,4
277,059	-120,51
277,269	-24,37
277,48	-96,47
277,691	77,78
277,901	-94,47
278,112	-52,41
278,323	-30,38
278,533	93,8
278,744	-26,37
278,954	-6,34
279,165	-20,36
279,376	-22,37
279,586	-118,51
279,797	-46,4
280,007	-24,37
280,218	27,71
280,428	47,74
280,639	63,76
280,849	15,69
281,06	-8,35
281,27	13,69
281,481	11,68
281,691	-12,35
281,902	-14,35
282,112	-18,36
282,322	31,71
282,533	17,69
282,743	37,72
282,954	13,69
283,164	-54,41
283,374	51,74
283,585	57,75
283,795	-74,44
284,006	59,75
284,216	45,73
284,426	-8,35
284,637	-62,42
284,847	-72,44
285,057	21,7
285,268	71,77
285,478	1,67
285,688	41,73
285,898	-34,38
286,109	21,7
286,319	-46,4
286,529	21,7
286,739	-52,41
286,95	81,79
287,16	-14,35
287,37	29,71
287,58	51,74
287,79	37,72
288,001	27,71
288,211	7,68
288,421	81,79
288,631	-46,4
288,841	3,67
289,051	15,69
289,261	69,77
289,471	-50,41
289,682	9,68
289,892	19,7
290,102	-12,35
290,312	-62,42
290,522	11,68
290,732	53,74
290,942	25,7
291,152	53,74
291,362	139,87
291,572	-48,4
291,782	5,67
291,992	103,82
292,202	-16,36
292,412	-62,42
292,622	87,79
292,832	19,7
293,042	63,76
293,252	37,72
293,462	1,67
293,672	-98,48
293,881	-6,34
294,091	-2,34
294,301	7,68
294,511	-22,37
294,721	119,84
294,931	81,79
295,141	-8,35
295,35	29,71
295,56	13,69
295,77	31,71
295,98	-110,49
296,19	65,76
296,4	17,69
296,609	-20,36
296,819	21,7
297,029	19,7
297,239	53,74
297,448	29,71
297,658	53,74
297,868	43,73
298,077	-54,41
298,287	1,67
298,497	73,77
298,706	41,73
298,916	-12,35
299,126	-24,37
299,335	-6,34
299,545	-40,39
299,755	1,67
299,964	17,69
300,174	133,86
300,384	35,72
300,593	71,77
300,803	-10,35
301,012	63,76
301,222	47,74
301,431	-42,39
301,641	-18,36
301,851	67,76
302,06	65,76
302,27	-22,37
302,479	27,71
302,689	69,77
302,898	-134,53
303,107	7,68
303,317	-0,33
303,526	91,8
303,736	37,72
303,945	45,73
304,155	-62,42
304,364	57,75
304,574	55,75
304,783	37,72
304,992	59,75
305,202	-36,39
305,411	5,67
305,62	-8,35
305,83	45,73
306,039	49,74
306,248	57,75
306,458	-34,38
306,667	-52,41
306,876	51,74
307,086	-28,37
307,295	15,69
307,504	-10,35
307,713	41,73
307,923	-172,58
308,132	41,73
308,341	-78,45
308,55	49,74
308,76	-74,44
308,969	57,75
309,178	27,71
309,387	31,71
309,596	-10,35
309,805	-4,34
310,015	41,73
310,224	-62,42
310,433	1,67
310,642	-98,48
310,851	25,7
311,06	-36,39
311,269	-28,37
311,478	-78,45
311,687	-204,63
311,896	-10,35
312,106	55,75
312,315	55,75
312,524	107,82
312,733	153,89
312,942	-62,42
313,151	91,8
313,36	55,75
313,569	25,7
313,778	19,7
313,987	-20,36
314,195	87,79
314,404	15,69
314,613	-98,48
314,822	47,74
315,031	-12,35
315,24	-42,39
315,449	135,86
315,658	5,67
315,867	29,71
316,076	-52,41
316,284	47,74
316,493	37,72
316,702	-44,4
316,911	89,8
317,12	67,76
317,329	77,78
317,537	99,81
317,746	-116,5
317,955	61,76
318,164	7,68
318,372	-10,35
318,581	131,86
318,79	-28,37
318,999	23,7
319,207	9,68
319,416	-94,47
319,625	-88,46
319,833	63,76
320,042	93,8
320,251	1,67
320,459	7,68
320,668	-32,38
320,877	21,7
321,085	-66,43
321,294	-74,44
321,502	25,7
321,711	41,73
321,92	3,67
322,128	-14,35
322,337	13,69
322,545	7,68
322,754	13,69
322,962	47,74
323,171	-50,41
323,379	-52,41
323,588	41,73
323,796	-56,42
324,005	65,76
324,213	-30,38
324,422	95,81
324,63	-24,37
324,839	-24,37
325,047	-10,35
325,256	7,68
325,464	3,67
325,672	47,74
325,881	17,69
326,089	13,69
326,297	37,72
326,506	-18,36
326,714	71,77
326,923	21,7
327,131	-4,34
327,339	23,7
327,548	-10,35
327,756	9,68
327,964	-6,34
328,172	1,67
328,381	5,67
328,589	23,7
328,797	-30,38
329,005	-48,4
329,214	-108,49
329,422	61,76
329,63	-26,37
329,838	57,75
330,046	-74,44
330,255	1,67
330,463	1,67
330,671	-10,35
330,879	41,73
331,087	-18,36
331,295	43,73
331,503	-26,37
331,712	31,71
331,92	51,74
332,128	87,79
332,336	75,78
332,544	-92,47
332,752	-36,39
332,96	13,69
333,168	-32,38
333,376	-104,48
333,584	7,68
333,792	39,72
334	89,8
334,208	-8,35
334,416	39,72
334,624	31,71
334,832	11,68
335,04	13,69
335,248	37,72
335,456	7,68
335,664	-34,38
335,872	-40,39
336,08	-58,42
336,287	-74,44
336,495	73,77
336,703	-4,34
336,911	3,67
337,119	11,68
337,327	67,76
337,535	-42,39
337,742	3,67
337,95	65,76
338,158	15,69
338,366	-8,35
338,573	-18,36
338,781	-0,33
338,989	101,81
339,197	35,72
339,404	-36,39
339,612	23,7
339,82	-100,48
340,028	-98,48
340,235	11,68
340,443	47,74
340,651	29,71
340,858	-104,48
341,066	-22,37
341,274	13,69
341,481	61,76
341,689	87,79
341,896	55,75
342,104	85,79
342,312	7,68
342,519	69,77
342,727	11,68
342,934	39,72
343,142	-22,37
343,349	23,7
343,557	75,78
343,765	-4,34
343,972	85,79
344,18	-22,37
344,387	31,71
344,594	35,72
344,802	105,82
345,009	-28,37
345,217	-36,39
345,424	137,87
345,632	-76,44
345,839	-60,42
346,047	71,77
346,254	-18,36
346,461	11,68
346,669	51,74
346,876	75,78
347,083	45,73
347,291	49,74
347,498	-4,34
347,705	49,74
347,913	-16,36
348,12	73,77
348,327	-12,35
348,535	-8,35
348,742	-30,38
348,949	41,73
349,156	-14,35
349,364	-12,35
349,571	9,68
349,778	25,7
349,985	-120,51
350,192	7,68
350,4	81,79
350,607	95,81
350,814	53,74
351,021	15,69
351,228	27,71
351,435	37,72
351,643	-4,34
351,85	-0,33
352,057	87,79
352,264	91,8
352,471	41,73
352,678	79,78
352,885	129,85
353,092	49,74
353,299	45,73
353,506	57,75
353,713	45,73
353,92	23,7
354,127	17,69
354,334	57,75
354,541	-26,37
354,748	35,72
354,955	-38,39
355,162	39,72
355,369	57,75
355,576	105,82
355,783	-2,34
355,99	7,68
356,197	-64,43
356,404	37,72
356,611	41,73
356,817	-66,43
357,024	57,75
357,231	71,77
357,438	23,7
357,645	11,68
357,852	23,7
358,058	43,73
358,265	11,68
358,472	47,74
358,679	19,7
358,885	-18,36
359,092	109,83
359,299	-66,43
359,506	-6,34
359,712	45,73
359,919	-52,41
360,126	-0,33
360,333	-16,36
360,539	69,77
360,746	-32,38
360,953	67,76
361,159	9,68
361,366	-88,46
361,572	-24,37
361,779	-30,38
361,986	-14,35
362,192	-0,33
362,399	77,78
362,605	7,68
362,812	63,76
363,019	13,69
363,225	67,76
363,432	65,76
363,638	-128,52
363,845	-72,44
364,051	101,81
364,258	-2,34
364,464	-4,34
364,671	-0,33
364,877	99,81
365,084	95,81
365,29	-32,38
365,496	91,8
365,703	-30,38
365,909	-16,36
366,116	83,79
366,322	35,72
366,528	-16,36
366,735	-4,34
366,941	-60,42
367,147	31,71
367,354	107,82
367,56	13,69
367,766	113,83
367,973	117,84
368,179	-60,42
368,385	-0,33
368,592	87,79
368,798	49,74
369,004	51,74
369,21	-64,43
369,417	85,79
369,623	-28,37
369,829	73,77
370,035	27,71
370,241	75,78
370,448	-102,48
370,654	-14,35
370,86	-10,35
371,066	-2,34
371,272	-22,37
371,478	101,81
371,684	-40,39
371,891	111,83
372,097	17,69
372,303	-58,42
372,509	-20,36
372,715	-18,36
372,921	3,67
373,127	9,68
373,333	7,68
373,539	-46,4
373,745	7,68
373,951	41,73
374,157	49,74
374,363	57,75
374,569	-24,37
374,775	-10,35
374,981	-2,34
375,187	-58,42
375,393	-26,37
375,599	87,79
375,804	9,68
376,01	29,71
376,216	55,75
376,422	79,78
376,628	47,74
376,834	45,73
377,04	37,72
377,246	1,67
377,451	-64,43
377,657	-106,49
377,863	61,76
378,069	-62,42
378,274	23,7
378,48	103,82
378,686	11,68
378,892	55,75
379,097	-28,37
379,303	133,86
379,509	-6,34
379,715	49,74
379,92	57,75
380,126	103,82
380,332	-106,49
380,537	15,69
380,743	59,75
380,949	57,75
381,154	3,67
381,36	-102,48
381,565	37,72
381,771	67,76
381,977	111,83
382,182	-42,39
382,388	39,72
382,593	-26,37
382,799	9,68
383,004	-42,39
383,21	1,67
383,415	31,71
383,621	-28,37
383,826	-24,37
384,032	83,79
384,237	-82,45
384,443	69,77
384,648	-28,37
384,854	99,81
385,059	-26,37
385,265	-36,39
385,47	-4,34
385,675	53,74
385,881	37,72
386,086	-42,39
386,291	23,7
386,497	47,74
386,702	-34,38
386,907	-8,35
387,113	23,7
387,318	23,7
387,523	-6,34
387,729	35,72
387,934	69,77
388,139	43,73
388,344	1,67
388,55	33,72
388,755	-30,38
388,96	15,69
389,165	123,85
389,371	43,73
389,576	-46,4
389,781	195,95
389,986	7,68
390,191	59,75
390,396	-34,38
390,601	57,75
390,807	-36,39
391,012	31,71
391,217	29,71
391,422	13,69
391,627	19,7
391,832	-52,41
392,037	81,79
392,242	95,81
392,447	21,7
392,652	-56,42
392,857	65,76
393,062	17,69
393,267	75,78
393,472	-10,35
393,677	-38,39
393,882	3,67
394,087	75,78
394,292	45,73
394,497	43,73
394,702	55,75
394,907	87,79
395,112	-16,36
395,317	61,76
395,521	-0,33
395,726	-32,38
395,931	-0,33
396,136	39,72
396,341	-88,46
396,546	5,67
396,75	-50,41
396,955	-50,41
397,16	-38,39
397,365	-60,42
397,57	-16,36
397,774	-52,41
397,979	31,71
398,184	-12,35
398,389	79,78
398,593	91,8
398,798	-18,36
399,003	-12,35
399,207	-8,35
399,412	-24,37
399,617	-18,36
399,821	5,67
400,026	153,89
400,231	77,78
400,435	21,7
400,64	-20,36
400,844	-16,36
401,049	37,72
401,254	-12,35
401,458	27,71
401,663	-50,41
401,867	37,72
402,072	69,77
402,276	-30,38
402,481	-20,36
402,685	71,77
402,89	29,71
403,094	99,81
403,299	-4,34
403,503	39,72
403,708	-156,56
403,912	-8,35
404,116	-36,39
404,321	77,78
404,525	25,7
404,73	75,78
404,934	13,69
405,138	75,78
405,343	43,73
405,547	17,69
405,751	31,71
405,956	47,74
406,16	41,73
406,364	57,75
406,569	67,76
406,773	-42,39
406,977	-36,39
407,181	-104,48
407,386	-10,35
407,59	21,7
407,794	-14,35
407,998	-4,34
408,202	-16,36
408,407	-30,38
408,611	-36,39
408,815	87,79
409,019	-24,37
409,223	133,86
409,427	73,77
409,632	61,76
409,836	-8,35
410,04	-38,39
410,244	9,68
410,448	-54,41
410,652	125,85
410,856	-62,42
411,06	63,76
411,264	-2,34
411,468	-0,33
411,672	69,77
411,876	129,85
412,08	59,75
412,284	33,72
412,488	5,67
412,692	61,76
412,896	39,72
413,1	61,76
413,304	13,69
413,508	1,67
413,712	35,72
413,916	71,77
414,12	47,74
414,323	41,73
414,527	31,71
414,731	-84,46
414,935	19,7
415,139	95,81
415,343	31,71
415,546	87,79
415,75	37,72
415,954	109,83
416,158	-38,39
416,361	-16,36
416,565	-64,43
416,769	49,74
416,973	-32,38
417,176	75,78
417,38	-128,52
417,584	-32,38
417,788	47,74
417,991	33,72
418,195	-18,36
418,398	7,68
418,602	25,7
418,806	-48,4
419,009	-46,4
419,213	69,77
419,417	1,67
419,62	27,71
419,824	49,74
420,027	33,72
420,231	-22,37
420,434	-44,4
420,638	-2,34
420,841	105,82
421,045	-14,35
421,248	57,75
421,452	45,73
421,655	3,67
421,859	1,67
422,062	-30,38
422,266	91,8
422,469	-4,34
422,673	57,75
422,876	-48,4
423,079	-76,44
423,283	29,71
423,486	5,67
423,689	7,68
423,893	33,72
424,096	109,83
424,299	55,75
424,503	3,67
424,706	-72,44
424,909	19,7
425,113	-2,34
425,316	93,8
425,519	79,78
425,722	83,79
425,926	-10,35
426,129	17,69
426,332	-4,34
426,535	61,76
426,739	-14,35
426,942	-20,36
427,145	-36,39
427,348	-6,34
427,551	25,7
427,754	77,78
427,957	31,71
428,161	-8,35
428,364	3,67
428,567	-70,44
428,77	67,76
428,973	-14,35
429,176	9,68
429,379	5,67
429,582	-124,51
429,785	13,69
429,988	-40,39
430,191	67,76
430,394	37,72
430,597	21,7
430,8	51,74
431,003	-10,35
431,206	23,7
431,409	65,76
431,612	15,69
431,815	41,73
432,018	25,7
432,221	37,72
432,423	113,83
432,626	-26,37
432,829	61,76
433,032	123,85
433,235	45,73
433,438	-30,38
433,64	-108,49
433,843	99,81
434,046	43,73
434,249	11,68
434,452	69,77
434,654	-48,4
434,857	-82,45
435,06	-16,36
435,263	123,85
435,465	45,73
435,668	-110,49
435,871	125,85
436,073	-48,4
436,276	11,68
436,479	-34,38
436,681	31,71
436,884	39,72
437,087	69,77
437,289	9,68
437,492	13,69
437,694	35,72
437,897	-58,42
438,1	107,82
438,302	-20,36
438,505	109,83
438,707	29,71
438,91	43,73
439,112	35,72
439,315	45,73
439,517	17,69
439,72	-4,34
439,922	-30,38
440,125	7,68
440,327	91,8
440,529	51,74
440,732	9,68
440,934	83,79
441,137	-16,36
441,339	37,72
441,541	-28,37
441,744	53,74
441,946	51,74
442,148	69,77
442,351	-6,34
442,553	-54,41
442,755	-42,39
442,958	-2,34
443,16	-12,35
443,362	115,83
443,565	99,81
443,767	-18,36
443,969	-62,42
444,171	31,71
444,373	3,67
444,576	-16,36
444,778	55,75
444,98	-26,37
445,182	69,77
445,384	-58,42
445,586	3,67
445,789	69,77
445,991	-42,39
446,193	99,81
446,395	-8,35
446,597	39,72
446,799	71,77
447,001	-2,34
447,203	-2,34
447,405	15,69
447,607	115,83
447,809	29,71
448,011	-86,46
448,213	75,78
448,415	-36,39
448,617	53,74
448,819	-56,42
449,021	-46,4
449,223	131,86
449,425	105,82
449,627	69,77
449,829	-46,4
450,031	55,75
450,233	83,79
450,435	79,78
450,636	-0,33
450,838	17,69
451,04	17,69
451,242	-0,33
451,444	-32,38
451,646	-0,33
451,847	15,69
452,049	63,76
452,251	41,73
452,453	49,74
452,654	-12,35
452,856	35,72
453,058	31,71
453,26	47,74
453,461	-32,38
453,663	3,67
453,865	67,76
454,066	31,71
454,268	83,79
454,47	129,85
454,671	43,73
454,873	-14,35
455,074	-30,38
455,276	21,7
455,478	33,72
455,679	159,9
455,881	71,77
456,082	-0,33
456,284	11,68
456,485	63,76
456,687	75,78
456,888	55,75
457,09	55,75
457,291	65,76
457,493	-60,42
457,694	-26,37
457,896	-24,37
458,097	95,81
458,299	39,72
458,5	-24,37
458,701	-52,41
458,903	155,89
459,104	63,76
459,306	79,78
459,507	1,67
459,708	41,73
459,91	81,79
460,111	7,68
460,312	-32,38
460,514	67,76
460,715	115,83
460,916	3,67
461,117	79,78
461,319	41,73
461,52	-24,37
461,721	-34,38
461,922	-2,34
462,124	25,7
462,325	43,73
462,526	37,72
462,727	23,7
462,928	135,86
463,129	113,83
463,331	71,77
463,532	21,7
463,733	3,67
463,934	17,69
464,135	29,71
464,336	79,78
464,537	39,72
464,738	-40,39
464,939	-26,37
465,14	49,74
465,341	95,81
465,542	37,72
465,743	-0,33
465,944	31,71
466,145	47,74
466,346	-16,36
466,547	103,82
466,748	-28,37
466,949	53,74
467,15	39,72
467,351	57,75
467,552	57,75
467,753	35,72
467,953	73,77
468,154	45,73
468,355	95,81
468,556	-30,38
468,757	9,68
468,958	-36,39
469,158	5,67
469,359	85,79
469,56	37,72
469,761	97,81
469,962	107,82
470,162	65,76
470,363	3,67
470,564	81,79
470,764	39,72
470,965	105,82
471,166	71,77
471,366	9,68
471,567	-104,48
471,768	85,79
471,968	41,73
472,169	49,74
472,37	75,78
472,57	103,82
472,771	137,87
472,971	23,7
473,172	-30,38
473,373	79,78
473,573	-14,35
473,774	165,91
473,974	151,89
474,175	143,88
474,375	3,67
474,576	121,84
474,776	97,81
474,977	139,87
475,177	117,84
475,377	-14,35
475,578	9,68
475,778	85,79
475,979	117,84
476,179	79,78
476,379	91,8
476,58	83,79
476,78	99,81
476,981	179,93
477,181	101,81
477,381	53,74
477,582	87,79
477,782	77,78
477,982	97,81
478,182	117,84
478,383	211,97
478,583	232
478,783	47,74
478,983	87,79
479,184	169,91
479,384	61,76
479,584	135,86
479,784	181,93
479,984	298,1
480,184	49,74
480,385	205,97
480,585	197,95
480,785	173,92
480,985	175,92
481,185	244,02
481,385	246,02
481,585	260,04
481,785	312,12
481,985	111,83
482,185	238,01
482,385	238,01
482,585	153,89
482,785	310,12
482,985	266,05
483,185	242,02
483,385	380,22
483,585	272,06
483,785	358,19
483,985	334,15
484,185	318,13
484,385	290,09
484,585	314,12
484,785	374,21
484,985	426,28
485,185	410,26
485,384	324,14
485,584	346,17
485,784	404,25
485,984	322,13
486,184	412,26
486,383	440,3
486,583	392,24
486,783	414,27
486,983	424,28
487,183	456,33
487,382	428,29
487,582	398,24
487,782	504,4
487,981	576,5
488,181	434,3
488,381	474,35
488,58	540,45
488,78	614,56
488,98	540,45
489,179	526,43
489,379	468,35
489,579	654,62
489,778	612,55
489,978	616,56
490,177	520,42
490,377	604,54
490,576	648,61
490,776	722,71
490,975	728,72
491,175	776,79
491,374	704,69
491,574	772,79
491,773	798,82
491,973	900,97
492,172	836,88
492,372	878,94
492,571	878,94
492,771	1015,14
492,97	951,05
493,169	919
493,369	1025,15
493,568	1079,23
493,767	1049,19
493,967	1095,25
494,166	1107,27
494,365	1207,42
494,565	1165,36
494,764	1185,39
494,963	1147,33
495,163	1429,74
495,362	1311,57
495,561	1403,7
495,76	1459,78
495,959	1243,47
496,159	1421,73
496,358	1413,72
496,557	1585,97
496,756	1431,74
496,955	1465,79
497,155	1660,07
497,354	1595,98
497,553	1616,01
497,752	1754,21
497,951	1734,18
498,15	1868,38
498,349	1746,2
498,548	1842,34
498,747	1890,41
498,946	1856,36
499,145	1994,56
499,344	1984,54
499,543	2170,81
499,742	2064,66
499,941	2238,91
500,14	2134,76
500,339	2118,74
500,538	2351,07
500,737	2294,99
500,936	2439,2
501,135	2333,05
501,334	2467,24
501,533	2611,45
501,732	2597,43
501,931	2667,53
502,129	2617,46
502,328	2565,39
502,527	2739,64
502,726	2733,63
502,925	2899,87
503,123	3008,03
503,322	2943,93
503,521	3070,12
503,72	2951,95
503,919	3222,34
504,117	3136,21
504,316	3174,27
504,515	3270,41
504,713	3302,45
504,912	3440,65
505,111	3526,78
505,309	3476,71
505,508	3458,68
505,707	3735,08
505,905	3444,66
506,104	3789,16
506,302	3691,02
506,501	3885,3
506,7	3805,18
506,898	3897,32
507,097	3891,31
507,295	3923,35
507,494	3929,36
507,692	3987,45
507,891	4269,86
508,089	4257,84
508,288	4145,68
508,486	4327,94
508,685	4213,77
508,883	4422,08
509,082	4390,03
509,28	4594,33
509,478	4285,88
509,677	4740,54
509,875	4636,39
510,073	4600,34
510,272	4742,54
510,47	4784,6
510,669	4688,46
510,867	4724,52
511,065	4684,46
511,263	4982,89
511,462	5087,04
511,66	5046,98
511,858	4900,77
512,056	5063,01
512,255	4942,83
512,453	4880,74
512,651	5067,01
512,849	5249,28
513,048	5133,11
513,246	5283,33
513,444	5221,24
513,642	5369,45
513,84	5273,31
514,038	5175,17
514,236	5371,45
514,435	5413,51
514,633	5249,28
514,831	5451,57
515,029	5427,53
515,227	5675,89
515,425	5227,24
515,623	5321,38
515,821	5461,58
516,019	5381,47
516,217	5169,16
516,415	5615,81
516,613	5419,52
516,811	5407,51
517,009	5561,73
517,207	5489,62
517,405	5437,55
517,602	5477,61
517,8	5317,37
517,998	5553,72
518,196	5507,65
518,394	5535,69
518,592	5409,51
518,79	5309,36
518,987	5265,3
519,185	5273,31
519,383	5317,37
519,581	5229,25
519,779	5129,1
519,976	5183,18
520,174	5125,1
520,372	5119,09
520,57	5073,02
520,767	5291,34
520,965	5030,96
521,163	4942,83
521,36	5127,1
521,558	4980,89
521,756	4890,76
521,953	5034,97
522,151	4854,7
522,349	4734,53
522,546	4698,48
522,744	4734,53
522,941	4558,27
523,139	4644,4
523,336	4704,49
523,534	4608,35
523,731	4386,02
523,929	4361,99
524,126	4428,09
524,324	4392,03
524,521	4297,9
524,719	4211,77
524,916	4239,81
525,114	4079,58
525,311	4103,62
525,509	4041,53
525,706	3901,32
525,903	3929,36
526,101	4003,47
526,298	3871,28
526,496	3779,14
526,693	3891,31
526,89	3825,21
527,088	3783,15
527,285	3713,05
527,482	3582,86
527,679	3582,86
527,877	3544,81
528,074	3378,56
528,271	3514,76
528,468	3346,52
528,666	3432,64
528,863	3378,56
529,06	3380,57
529,257	3224,34
529,454	3246,37
529,652	3238,36
529,849	3110,18
530,046	3180,28
530,243	3046,08
530,44	3102,16
530,637	3156,24
530,834	3106,17
531,031	2909,88
531,228	2779,7
531,425	2915,89
531,622	2867,82
531,819	2777,69
532,016	2759,67
532,213	2753,66
532,41	2617,46
532,607	2597,43
532,804	2499,29
533,001	2555,37
533,198	2597,43
533,395	2561,38
533,592	2419,17
533,789	2521,32
533,986	2349,07
534,183	2461,23
534,38	2391,13
534,576	2443,21
534,773	2315,02
534,97	2425,18
535,167	2292,99
535,364	2395,14
535,561	2315,02
535,757	2206,87
535,954	2294,99
536,151	2164,8
536,348	2204,86
536,544	1990,55
536,741	2000,57
536,938	1936,47
537,134	2002,57
537,331	2036,62
537,528	2010,58
537,724	1948,49
537,921	1930,47
538,118	1924,46
538,314	1768,23
538,511	1780,25
538,707	1784,25
538,904	1870,38
539,101	1682,11
539,297	1800,28
539,494	1796,27
539,69	1848,35
539,887	1632,03
540,083	1678,1
540,28	1628,03
540,476	1676,1
540,673	1421,73
540,869	1493,83
541,066	1403,7
541,262	1521,87
541,458	1539,9
541,655	1527,88
541,851	1499,84
542,048	1425,73
542,244	1351,63
542,44	1399,7
542,637	1251,48
542,833	1421,73
543,029	1371,66
543,226	1299,55
543,422	1353,63
543,618	1359,64
543,814	1133,31
544,011	1235,46
544,207	1237,46
544,403	1265,5
544,599	1159,35
544,796	1207,42
544,992	1043,18
545,188	1121,29
545,384	1143,32
545,58	1179,38
545,776	1129,3
545,972	1103,27
546,169	1171,36
546,365	993,11
546,561	1069,22
546,757	1045,18
546,953	1109,27
547,149	1049,19
547,345	902,98
547,541	961,06
547,737	953,05
547,933	1073,22
548,129	870,93
548,325	910,99
548,521	943,03
548,717	933,02
548,913	884,95
549,109	967,07
549,305	860,91
549,501	808,84
549,697	868,93
549,892	943,03
550,088	744,75
550,284	866,92
550,48	742,74
550,676	882,95
550,872	822,86
551,067	792,82
551,263	806,84
551,459	764,78
551,655	860,91
551,85	610,55
552,046	836,88
552,242	720,71
552,438	644,6
552,633	662,63
552,829	640,6
553,025	734,73
553,22	610,55
553,416	514,41
553,612	632,58
553,807	650,61
554,003	720,71
554,198	664,63
554,394	484,37
554,59	620,57
554,785	550,46
554,981	648,61
555,176	602,54
555,372	606,55
555,567	512,41
555,763	656,62
555,958	448,32
556,154	528,43
556,349	484,37
556,545	526,43
556,74	466,34
556,936	420,28
557,131	536,44
557,326	562,48
557,522	530,44
557,717	516,42
557,912	550,46
558,108	550,46
558,303	472,35
558,498	490,38
558,694	536,44
558,889	556,47
559,084	360,19
559,28	450,32
559,475	476,36
559,67	428,29
559,865	456,33
560,061	474,35
560,256	426,28
560,451	394,24
560,646	384,22
560,841	456,33
561,037	280,07
561,232	370,2
561,427	498,39
561,622	354,18
561,817	372,21
562,012	300,1
562,207	318,13
562,402	300,1
562,597	378,21
562,792	334,15
562,987	426,28
563,182	362,19
563,377	400,25
563,572	414,27
563,767	396,24
563,962	388,23
564,157	326,14
564,352	400,25
564,547	344,17
564,742	394,24
564,937	254,03
565,132	340,16
565,327	344,17
565,522	296,1
565,716	352,18
565,911	346,17
566,106	312,12
566,301	286,08
566,496	344,17
566,691	296,1
566,885	386,23
567,08	310,12
567,275	358,19
567,47	256,04
567,664	234,01
567,859	264,05
568,054	266,05
568,248	189,94
568,443	396,24
568,638	276,07
568,832	344,17
569,027	282,08
569,222	223,99
569,416	207,97
569,611	105,82
569,805	346,17
570	244,02
570,195	306,11
570,389	294,09
570,584	292,09
570,778	324,14
570,973	332,15
571,167	278,07
571,362	376,21
571,556	310,12
571,751	290,09
571,945	219,99
572,139	250,03
572,334	268,06
572,528	238,01
572,723	276,07
572,917	165,91
573,111	215,98
573,306	270,06
573,5	250,03
573,694	384,22
573,889	250,03
574,083	296,1
574,277	304,11
574,472	346,17
574,666	324,14
574,86	306,11
575,054	392,24
575,249	250,03
575,443	292,09
575,637	384,22
575,831	326,14
576,025	378,21
576,219	318,13
576,414	352,18
576,608	322,13
576,802	244,02
576,996	322,13
577,19	336,15
577,384	386,23
577,578	254,03
577,772	254,03
577,966	466,34
578,16	378,21
578,354	318,13
578,548	280,07
578,742	326,14
578,936	418,27
579,13	312,12
579,324	388,23
579,518	324,14
579,712	414,27
579,906	356,18
580,1	342,16
580,294	440,3
580,488	292,09
580,682	374,21
580,875	418,27
581,069	356,18
581,263	350,17
581,457	458,33
581,651	466,34
581,845	394,24
582,038	536,44
582,232	448,32
582,426	478,36
582,62	468,35
582,813	442,31
583,007	434,3
583,201	512,41
583,394	534,44
583,588	542,45
583,782	432,29
583,975	490,38
584,169	488,37
584,363	552,47
584,556	558,48
584,75	558,48
584,943	640,6
585,137	504,4
585,33	564,48
585,524	616,56
585,718	666,63
585,911	576,5
586,105	650,61
586,298	618,56
586,491	588,52
586,685	578,51
586,878	646,6
587,072	624,57
587,265	674,64
587,459	748,75
587,652	756,76
587,845	758,77
588,039	758,77
588,232	768,78
588,426	720,71
588,619	716,71
588,812	702,69
589,005	880,94
589,199	806,84
589,392	774,79
589,585	929,01
589,779	784,8
589,972	1021,15
590,165	945,04
590,358	846,89
590,551	1007,13
590,745	985,09
590,938	999,11
591,131	1009,13
591,324	975,08
591,517	1001,12
591,71	1051,19
591,904	1045,18
592,097	1079,23
592,29	1195,4
592,483	1101,26
592,676	1109,27
592,869	1259,49
593,062	1253,48
593,255	1187,39
593,448	1227,45
593,641	1339,61
593,834	1295,54
594,027	1169,36
594,22	1399,7
594,413	1283,53
594,606	1409,71
594,799	1463,79
594,992	1419,72
595,184	1485,82
595,377	1618,01
595,57	1658,07
595,763	1569,94
595,956	1634,04
596,149	1704,14
596,341	1684,11
596,534	1700,13
596,727	1844,34
596,92	1820,31
597,113	1826,31
597,305	1820,31
597,498	2008,58
597,691	1910,44
597,883	2000,57
598,076	2022,6
598,269	2124,75
598,462	2188,84
598,654	2132,76
598,847	2168,81
599,039	2421,18
599,232	2361,09
599,425	2501,29
599,617	2407,16
599,81	2489,28
600,002	2603,44
600,195	2565,39
600,387	2733,63
600,58	2587,42
600,772	2847,79
600,965	2659,52
601,157	2893,86
601,35	2739,64
601,542	2983,99
601,735	3038,07
601,927	3238,36
602,12	3096,15
602,312	3282,42
602,504	3204,31
602,697	3470,7
602,889	3522,77
603,082	3612,9
603,274	3646,95
603,466	3773,14
603,659	3761,12
603,851	3935,37
604,043	3815,2
604,235	4013,48
604,428	3973,43
604,62	4171,71
604,812	4339,96
605,004	4432,09
605,197	4484,17
605,389	4658,42
605,581	4580,31
605,773	4962,86
605,965	4820,65
606,157	5020,95
606,349	4834,68
606,542	5255,28
606,734	5277,32
606,926	5439,55
607,118	5467,59
607,31	5810,09
607,502	5731,98
607,694	5984,34
607,886	5920,25
608,078	6108,52
608,27	6076,48
608,462	6208,67
608,654	6400,95
608,846	6805,53
609,038	6597,23
609,23	7101,96
609,422	7053,89
609,614	7156,04
609,805	7222,14
609,997	7560,63
610,189	7580,66
610,381	7981,24
610,573	8187,54
610,765	8347,77
610,957	8449,92
611,148	8520,02
611,34	8936,62
611,532	9197
611,724	9433,34
611,915	9769,83
612,107	9631,63
612,299	10084,28
612,491	10198,45
612,682	10534,94
612,874	10591,02
613,066	10931,51
613,257	11223,94
613,449	11518,36
613,64	11920,95
613,832	11938,97
614,024	12289,48
614,215	12501,79
614,407	13104,66
614,598	13306,96
614,79	13461,18
614,981	14044,02
615,173	14220,28
615,364	14588,81
615,556	14749,05
615,747	15404
615,939	15662,37
616,13	15938,77
616,322	16253,23
616,513	16822,05
616,705	16796,01
616,896	17831,52
617,087	17587,16
617,279	18470,44
617,47	18510,5
617,661	19678,19
617,853	19537,99
618,044	20194,94
618,235	20419,27
618,427	21290,53
618,618	21534,88
618,809	22097,7
619	22310,01
619,192	23251,37
619,383	23245,36
619,574	24437,09
619,765	24507,19
619,957	25568,73
620,148	25524,67
620,339	26532,13
620,53	26872,62
620,721	27753,9
620,912	27878,08
621,103	28995,7
621,294	29167,95
621,485	30241,5
621,677	30395,73
621,868	31481,3
622,059	31108,76
622,25	32134,25
622,441	32290,48
622,632	33478,2
622,823	33848,73
623,014	34335,44
623,205	34982,38
623,395	35609,29
623,586	35859,65
623,777	36931,2
623,968	37255,67
624,159	38473,44
624,35	38321,22
624,541	39739,27
624,732	40109,81
624,923	40636,57
625,113	41391,67
625,304	41726,15
625,495	42439,19
625,686	43462,67
625,877	43901,31
626,067	44832,66
626,258	45095,04
626,449	45922,24
626,639	46168,59
626,83	47192,08
627,021	47314,25
627,211	48345,75
627,402	48620,15
627,593	49311,15
627,783	49801,86
627,974	50442,79
628,165	50933,5
628,355	51029,64
628,546	51432,22
628,736	52676,03
628,927	52531,82
629,117	53475,18
629,308	53513,24
629,498	54094,08
629,689	54158,17
629,879	55275,79
630,07	55235,74
630,26	55227,73
630,451	54486,65
630,641	55812,57
630,832	54831,15
631,022	55331,88
631,212	55193,68
631,403	55179,66
631,593	54266,33
631,784	54526,71
631,974	53743,57
632,164	54586,8
632,355	53196,78
632,545	53318,96
632,735	52886,33
632,925	51956,98
633,116	50721,19
633,306	50192,43
633,496	48958,64
633,686	48598,11
633,876	47388,36
634,067	46809,52
634,257	45427,52
634,447	44856,69
634,637	43640,93
634,827	42405,14
635,017	40646,59
635,208	40274,05
635,398	38673,73
635,588	38185,02
635,778	36686,85
635,968	36091,99
636,158	34275,35
636,348	33410,1
636,538	31988,04
636,728	31182,87
636,918	29484,41
637,108	28967,66
637,298	27389,37
637,488	26742,43
637,678	25302,35
637,868	24513,2
638,057	23509,75
638,247	22866,81
638,437	21697,12
638,627	21188,38
638,817	19990,65
639,007	19535,99
639,197	18454,42
639,386	17769,43
639,576	16834,07
639,766	16287,28
639,956	15710,44
640,145	15121,59
640,335	14428,58
640,525	14298,39
640,715	13276,91
640,904	12936,42
641,094	12113,23
641,284	11868,87
641,473	11458,28
641,663	10765,27
641,853	10500,89
642,042	10200,45
642,232	9409,31
642,421	9116,88
642,611	9026,75
642,801	8766,37
642,99	8315,72
643,18	8325,74
643,369	7919,15
643,559	7386,37
643,748	7404,4
643,938	6921,7
644,127	6559,17
644,317	6424,98
644,506	6074,47
644,695	5956,3
644,885	5932,27
645,074	5509,65
645,264	5387,48
645,453	5185,18
645,642	5089,04
645,832	4928,81
646,021	4672,44
646,21	4650,41
646,4	4259,84
646,589	4137,66
646,778	3909,33
646,967	3779,14
647,157	3654,96
647,346	3769,13
647,535	3466,69
647,724	3478,71
647,913	3324,49
648,103	3096,15
648,292	3012,03
648,481	3010,03
648,67	2743,64
648,859	2709,59
649,048	2731,63
649,237	2517,32
649,427	2497,29
649,616	2357,08
649,805	2395,14
649,994	2176,82
650,183	2134,76
650,372	2130,76
650,561	1996,56
650,75	2102,71
650,939	1884,4
651,128	1880,39
651,317	1800,28
651,506	1698,13
651,694	1632,03
651,883	1720,16
652,072	1529,88
652,261	1605,99
652,45	1461,79
652,639	1475,81
652,828	1427,74
653,016	1375,66
653,205	1159,35
653,394	1297,55
653,583	1117,29
653,772	1199,41
653,96	1059,2
654,149	1075,23
654,338	991,1
654,527	1069,22
654,715	975,08
654,904	967,07
655,093	983,09
655,281	1033,16
655,47	975,08
655,658	914,99
655,847	790,81
656,036	866,92
656,224	860,91
656,413	794,82
656,601	758,77
656,79	748,75
656,978	758,77
657,167	742,74
657,355	666,63
657,544	636,59
657,732	694,67
657,921	598,53
658,109	656,62
658,298	574,5
658,486	564,48
658,675	576,5
658,863	686,66
659,051	594,53
659,24	482,37
659,428	454,33
659,616	502,39
659,805	428,29
659,993	456,33
660,181	418,27
660,37	534,44
660,558	374,21
660,746	466,34
660,934	436,3
661,123	302,1
661,311	334,15
661,499	418,27
661,687	362,19
661,875	434,3
662,064	340,16
662,252	332,15
662,44	266,05
662,628	252,03
662,816	364,19
663,004	366,2
663,192	288,08
663,38	292,09
663,568	376,21
663,756	264,05
663,944	314,12
664,132	242,02
664,32	282,08
664,508	256,04
664,696	282,08
664,884	346,17
665,072	221,99
665,26	193,95
665,448	384,22
665,636	242,02
665,824	272,06
666,012	199,96
666,199	177,92
666,387	153,89
666,575	230
666,763	173,92
666,951	213,98
667,139	306,11
667,326	197,95
667,514	101,81
667,702	147,88
667,889	171,92
668,077	215,98
668,265	143,88
668,453	107,82
668,64	115,83
668,828	145,88
669,016	163,9
669,203	177,92
669,391	215,98
669,578	221,99
669,766	131,86
669,954	125,85
670,141	201,96
670,329	97,81
670,516	83,79
670,704	225,99
670,891	107,82
671,079	115,83
671,266	77,78
671,454	145,88
671,641	197,95
671,828	117,84
672,016	41,73
672,203	97,81
672,391	91,8
672,578	67,76
672,765	33,72
672,953	145,88
673,14	167,91
673,327	89,8
673,515	109,83
673,702	3,67
673,889	109,83
674,077	-16,36
674,264	71,77
674,451	49,74
674,638	91,8
674,825	73,77
675,013	111,83
675,2	155,89
675,387	77,78
675,574	-16,36
675,761	121,84
675,948	111,83
676,136	125,85
676,323	135,86
676,51	37,72
676,697	123,85
676,884	43,73
677,071	107,82
677,258	159,9
677,445	71,77
677,632	71,77
677,819	55,75
678,006	97,81
678,193	-16,36
678,38	47,74
678,567	91,8
678,754	159,9
678,94	41,73
679,127	71,77
679,314	87,79
679,501	81,79
679,688	199,96
679,875	101,81
680,062	119,84
680,248	175,92
680,435	97,81
680,622	163,9
680,809	83,79
680,995	77,78
681,182	83,79
681,369	25,7
681,556	131,86
681,742	193,95
681,929	81,79
682,116	145,88
682,302	-14,35
682,489	115,83
682,675	-12,35
682,862	183,93
683,049	75,78
683,235	51,74
683,422	-12,35
683,608	81,79
683,795	29,71
683,981	7,68
684,168	51,74
684,354	103,82
684,541	27,71
684,727	119,84
684,914	73,77
685,1	43,73
685,287	127,85
685,473	79,78
685,659	53,74
685,846	49,74
686,032	41,73
686,218	67,76
686,405	35,72
686,591	77,78
686,777	67,76
686,964	119,84
687,15	145,88
687,336	55,75
687,522	73,77
687,709	-36,39
687,895	67,76
688,081	3,67
688,267	-30,38
688,454	13,69
688,64	95,81
688,826	83,79
689,012	17,69
689,198	75,78
689,384	79,78
689,57	43,73
689,756	29,71
689,942	21,7
690,128	47,74
690,314	57,75
690,501	-2,34
690,687	95,81
690,873	-4,34
691,058	35,72
691,244	23,7
691,43	-40,39
691,616	87,79
691,802	-50,41
691,988	81,79
692,174	85,79
692,36	51,74
692,546	-48,4
692,732	69,77
692,917	51,74
693,103	89,8
693,289	193,95
693,475	1,67
693,661	-14,35
693,846	57,75
694,032	-52,41
694,218	27,71
694,404	99,81
694,589	-34,38
694,775	9,68
694,961	-0,33
695,146	-58,42
695,332	55,75
695,518	81,79
695,703	51,74
695,889	75,78
696,074	43,73
696,26	27,71
696,446	-62,42
696,631	131,86
696,817	125,85
697,002	95,81
697,188	11,68
697,373	47,74
697,559	15,69
697,744	13,69
697,93	133,86
698,115	7,68
698,3	-30,38
698,486	-2,34
698,671	77,78
698,857	-0,33
699,042	-74,44
699,227	121,84
699,413	65,76
699,598	-4,34
699,783	37,72
699,969	103,82
700,154	45,73
700,339	-6,34
700,524	-6,34
700,71	-20,36
700,895	-24,37
701,08	143,88
701,265	-44,4
701,45	101,81
701,636	7,68
701,821	-18,36
702,006	-8,35
702,191	-16,36
702,376	-34,38
702,561	-20,36
702,746	7,68
702,931	51,74
703,116	43,73
703,301	-6,34
703,486	-30,38
703,671	33,72
703,856	-8,35
704,041	-0,33
704,226	89,8
704,411	-36,39
704,596	-154,56
704,781	-8,35
704,966	29,71
705,151	93,8
705,336	19,7
705,521	33,72
705,706	69,77
705,89	53,74
706,075	39,72
706,26	125,85
706,445	27,71
706,63	-50,41
706,814	19,7
706,999	-24,37
707,184	17,69
707,368	-12,35
707,553	69,77
707,738	21,7
707,923	101,81
708,107	43,73
708,292	45,73
708,476	51,74
708,661	9,68
708,846	53,74
709,03	-12,35
709,215	37,72
709,399	11,68
709,584	-48,4
709,768	87,79
709,953	13,69
710,137	1,67
710,322	-40,39
710,506	17,69
710,691	-16,36
710,875	1,67
711,06	79,78
711,244	77,78
711,429	-22,37
711,613	-48,4
711,797	91,8
711,982	-20,36
712,166	55,75
712,35	19,7
712,535	107,82
712,719	137,87
712,903	75,78
713,088	57,75
713,272	17,69
713,456	-44,4
713,64	-30,38
713,824	-2,34
714,009	91,8
714,193	15,69
714,377	-12,35
714,561	37,72
714,745	103,82
714,929	121,84
715,113	1,67
715,298	9,68
715,482	23,7
715,666	-70,44
715,85	77,78
716,034	83,79
716,218	-28,37
716,402	3,67
716,586	15,69
716,77	-34,38
716,954	81,79
717,138	5,67
717,322	7,68
717,506	29,71
717,689	-28,37
717,873	-36,39
718,057	55,75
718,241	67,76
718,425	-2,34
718,609	45,73
718,793	57,75
718,976	77,78
719,16	85,79
719,344	101,81
719,528	67,76
719,711	45,73
719,895	115,83
720,079	91,8
720,263	201,96
720,446	5,67
720,63	-36,39
720,814	-58,42
720,997	-52,41
721,181	-34,38
721,364	69,77
721,548	27,71
721,732	-68,43
721,915	41,73
722,099	17,69
722,282	-12,35
722,466	-10,35
722,649	-84,46
722,833	31,71
723,016	7,68
723,2	1,67
723,383	11,68
723,567	47,74
723,75	13,69
723,934	-14,35
724,117	3,67
724,3	-22,37
724,484	-36,39
724,667	-22,37
724,85	57,75
725,034	85,79
725,217	55,75
725,4	61,76
725,584	115,83
725,767	-88,46
725,95	11,68
726,133	-10,35
726,317	49,74
726,5	29,71
726,683	41,73
726,866	47,74
727,049	11,68
727,232	-12,35
727,416	-32,38
727,599	87,79
727,782	-52,41
727,965	-50,41
728,148	113,83
728,331	91,8
728,514	-8,35
728,697	-12,35
728,88	17,69
729,063	61,76
729,246	-10,35
729,429	3,67
729,612	1,67
729,795	31,71
729,978	83,79
730,161	71,77
730,344	43,73
730,526	41,73
730,709	73,77
730,892	37,72
731,075	-50,41
731,258	91,8
731,441	67,76
731,623	73,77
731,806	47,74
731,989	19,7
732,172	-126,52
732,354	123,85
732,537	115,83
732,72	-20,36
732,903	41,73
733,085	13,69
733,268	111,83
733,451	-36,39
733,633	51,74
733,816	145,88
733,998	3,67
734,181	-108,49
734,364	-40,39
734,546	79,78
734,729	23,7
734,911	5,67
735,094	-78,45
735,276	55,75
735,459	1,67
735,641	-14,35
735,824	-42,39
736,006	-8,35
736,188	43,73
736,371	-78,45
736,553	77,78
736,736	59,75
736,918	23,7
737,1	35,72
737,283	-30,38
737,465	-28,37
737,647	53,74
737,83	19,7
738,012	69,77
738,194	73,77
738,376	-4,34
738,559	3,67
738,741	31,71
738,923	47,74
739,105	3,67
739,287	-6,34
739,469	41,73
739,652	37,72
739,834	73,77
740,016	77,78
740,198	73,77
740,38	-6,34
740,562	-8,35
740,744	115,83
740,926	19,7
741,108	35,72
741,29	13,69
741,472	5,67
741,654	-10,35
741,836	75,78
742,018	43,73
742,2	101,81
742,382	17,69
742,564	53,74
742,746	61,76
742,928	57,75
743,109	-22,37
743,291	-48,4
743,473	-24,37
743,655	-28,37
743,837	19,7
744,019	51,74
744,2	75,78
744,382	23,7
744,564	-14,35
744,746	-120,51
744,927	33,72
745,109	-24,37
745,291	37,72
745,472	-26,37
745,654	43,73
745,836	-36,39
746,017	41,73
746,199	65,76
746,38	11,68
746,562	-92,47
746,744	7,68
746,925	-2,34
747,107	59,75
747,288	51,74
747,47	-66,43
747,651	-0,33
747,833	-52,41
748,014	43,73
748,195	79,78
748,377	41,73
748,558	1,67
748,74	13,69
748,921	61,76
749,102	21,7
749,284	-20,36
749,465	103,82
749,646	-28,37
749,828	3,67
750,009	-18,36
750,19	63,76
750,372	41,73
750,553	71,77
750,734	35,72
750,915	-56,42
751,096	91,8
751,278	-10,35
751,459	151,89
751,64	31,71
751,821	89,8
752,002	41,73
752,183	25,7
752,364	29,71
752,546	49,74
752,727	53,74
752,908	57,75
753,089	7,68
753,27	55,75
753,451	1,67
753,632	7,68
753,813	-70,44
753,994	15,69
754,175	29,71
754,356	47,74
754,536	11,68
754,717	-40,39
754,898	59,75
755,079	45,73
755,26	17,69
755,441	73,77
755,622	43,73
755,802	91,8
755,983	43,73
756,164	13,69
756,345	41,73
756,526	-10,35
756,706	53,74
756,887	25,7
757,068	71,77
757,248	71,77
757,429	43,73
757,61	-34,38
757,79	37,72
757,971	113,83
758,152	-64,43
758,332	-38,39
758,513	19,7
758,693	11,68
758,874	73,77
759,055	69,77
759,235	17,69
759,416	-38,39
759,596	13,69
759,777	83,79
759,957	-54,41
760,137	59,75
760,318	29,71
760,498	11,68
760,679	31,71
760,859	-14,35
761,039	101,81
761,22	51,74
761,4	53,74
761,581	129,85
761,761	17,69
761,941	117,84
762,121	-28,37
762,302	-18,36
762,482	99,81
762,662	-12,35
762,842	37,72
763,023	97,81
763,203	-44,4
763,383	39,72
763,563	15,69
763,743	41,73
763,923	47,74
764,104	15,69
764,284	-36,39
764,464	19,7
764,644	-16,36
764,824	23,7
765,004	-22,37
765,184	-6,34
765,364	-2,34
765,544	-2,34
765,724	-30,38
765,904	55,75
766,084	55,75
766,264	39,72
766,444	37,72
766,624	-38,39
766,804	-90,46
766,983	19,7
767,163	9,68
767,343	-18,36
767,523	111,83
767,703	69,77
767,883	75,78
768,062	-48,4
768,242	23,7
768,422	19,7
768,602	83,79
768,781	-48,4
768,961	-22,37
769,141	11,68
769,32	53,74
769,5	13,69
769,68	-34,38
769,859	-24,37
770,039	51,74
770,219	-18,36
770,398	-30,38
770,578	-32,38
770,757	19,7
770,937	9,68
771,116	-24,37
771,296	31,71
771,475	-58,42
771,655	93,8
771,834	79,78
772,014	11,68
772,193	143,88
772,373	13,69
772,552	-2,34
772,731	-90,46
772,911	-18,36
773,09	13,69
773,269	23,7
773,449	81,79
773,628	67,76
773,807	39,72
773,987	3,67
774,166	27,71
774,345	59,75
774,524	-42,39
774,704	-36,39
774,883	-6,34
775,062	43,73
775,241	127,85
775,42	77,78
775,6	43,73
775,779	-10,35
775,958	-4,34
776,137	53,74
776,316	17,69
776,495	23,7
776,674	-74,44
776,853	-0,33
777,032	7,68
777,211	65,76
777,39	-16,36
777,569	37,72
777,748	-10,35
777,927	47,74
778,106	65,76
778,285	-2,34
778,464	-32,38
778,643	27,71
778,822	11,68
779	83,79
779,179	-4,34
779,358	35,72
779,537	65,76
779,716	-56,42
779,894	13,69
780,073	15,69
780,252	5,67
780,431	3,67
780,609	-52,41
780,788	63,76
780,967	-90,46
781,145	37,72
781,324	11,68
781,503	-20,36
781,681	-4,34
781,86	81,79
782,039	51,74
782,217	-32,38
782,396	93,8
782,574	21,7
782,753	105,82
782,931	71,77
783,11	-64,43
783,288	-50,41
783,467	81,79
783,645	-136,53
783,824	69,77
784,002	-66,43
784,18	-50,41
784,359	19,7
784,537	-64,43
784,716	55,75
784,894	9,68
785,072	-78,45
785,251	95,81
785,429	-8,35
785,607	51,74
785,785	-62,42
785,964	39,72
786,142	-122,51
786,32	-24,37
786,498	-76,44
786,677	27,71
786,855	-28,37
787,033	51,74
787,211	9,68
787,389	77,78
787,567	77,78
787,745	61,76
787,923	89,8
788,102	33,72
788,28	91,8
788,458	13,69
788,636	-14,35
788,814	73,77
788,992	83,79
789,17	-16,36
789,348	-4,34
789,526	59,75
789,703	-20,36
789,881	33,72
790,059	-38,39
790,237	-0,33
790,415	31,71
790,593	29,71
790,771	23,7
790,949	31,71
791,126	79,78
791,304	31,71
791,482	-20,36
791,66	-26,37
791,837	-42,39
792,015	-38,39
792,193	-40,39
792,371	101,81
792,548	91,8
792,726	19,7
792,904	-14,35
793,081	-94,47
793,259	-114,5
793,436	105,82
793,614	101,81
793,792	-28,37
793,969	103,82
794,147	-12,35
794,324	87,79
794,502	39,72
794,679	-70,44
794,857	-68,43
795,034	39,72
795,212	-30,38
795,389	97,81
795,567	57,75
795,744	17,69
795,921	-0,33
796,099	-74,44
796,276	-26,37
796,453	75,78
796,631	-2,34
796,808	-46,4
796,985	3,67
797,163	79,78
797,34	-54,41
797,517	-46,4
797,694	15,69
797,872	41,73
798,049	45,73
798,226	-22,37
798,403	45,73
798,58	117,84
798,757	-18,36
798,935	59,75
799,112	-48,4
799,289	1,67
799,466	-32,38
799,643	15,69
799,82	65,76
799,997	35,72
800,174	15,69
800,351	-28,37
800,528	91,8
800,705	45,73
800,882	-24,37
801,059	-14,35
801,236	77,78
801,413	-28,37
801,589	-44,4
801,766	21,7
801,943	21,7
802,12	63,76
802,297	25,7
802,474	51,74
802,651	75,78
802,827	65,76
803,004	31,71
803,181	-8,35
803,358	75,78
803,534	-42,39
803,711	-16,36
803,888	-86,46
804,064	-20,36
804,241	-70,44
804,418	-14,35
804,594	13,69
804,771	-118,51
804,947	79,78
805,124	-54,41
805,301	15,69
805,477	23,7
805,654	61,76
805,83	-6,34
806,007	-6,34
806,183	11,68
806,36	-26,37
806,536	-14,35
806,712	-30,38
806,889	55,75
807,065	19,7
807,242	-16,36
807,418	45,73
807,594	57,75
807,771	-4,34
807,947	-66,43
808,123	87,79
808,3	1,67
808,476	-48,4
808,652	-32,38
808,829	31,71
809,005	31,71
809,181	-36,39
809,357	-0,33
809,533	-0,33
809,71	57,75
809,886	29,71
810,062	89,8
810,238	-82,45
810,414	69,77
810,59	1,67
810,766	-8,35
810,942	-16,36
811,118	47,74
811,294	-22,37
811,47	-32,38
811,646	79,78
811,822	31,71
811,998	85,79
812,174	-76,44
812,35	3,67
812,526	-68,43
812,702	-50,41
812,878	7,68
813,054	73,77
813,23	-182,6
813,405	35,72
813,581	-22,37
813,757	87,79
813,933	83,79
814,109	7,68
814,284	77,78
814,46	-54,41
814,636	9,68
814,812	-112,5
814,987	-72,44
815,163	35,72
815,339	-16,36
815,514	-52,41
815,69	31,71
815,866	7,68
816,041	23,7
816,217	67,76
816,392	27,71
816,568	41,73
816,743	35,72
816,919	13,69
817,094	15,69
817,27	-12,35
817,445	73,77
817,621	-4,34
817,796	87,79
817,972	1,67
818,147	-52,41
818,322	-70,44
818,498	91,8
818,673	-62,42
818,849	-46,4
819,024	-90,46
819,199	9,68
819,375	-6,34
819,55	113,83
819,725	-4,34
819,9	9,68
820,076	25,7
820,251	3,67
820,426	103,82
820,601	71,77
820,776	29,71
820,952	61,76
821,127	-0,33
821,302	65,76
821,477	-80,45
821,652	91,8
821,827	3,67
822,002	-4,34
822,177	-26,37
822,352	23,7
822,527	71,77
822,702	-44,4
822,877	-28,37
823,052	53,74
823,227	49,74
823,402	-8,35
823,577	25,7
823,752	11,68
823,927	-4,34
824,102	147,88
824,277	57,75
824,451	-8,35
824,626	-28,37
824,801	-10,35
824,976	123,85
825,151	-8,35
825,325	31,71
825,5	15,69
825,675	11,68
825,85	89,8
826,024	105,82
826,199	51,74
826,374	-42,39
826,548	31,71
826,723	21,7
826,897	-4,34
827,072	-42,39
827,247	-24,37
827,421	15,69
827,596	3,67
827,77	53,74
827,945	113,83
828,119	-78,45
828,294	21,7
828,468	-32,38
828,643	39,72
828,817	1,67
828,992	-6,34
829,166	-22,37
829,34	67,76
829,515	25,7
829,689	51,74
829,864	51,74
830,038	57,75
830,212	65,76
830,386	-20,36
830,561	1,67
830,735	-62,42
830,909	69,77
831,084	17,69
831,258	67,76
831,432	29,71
831,606	41,73
831,78	37,72
831,954	17,69
832,129	89,8
832,303	19,7
832,477	-80,45
832,651	47,74
832,825	21,7
832,999	71,77
833,173	-50,41
833,347	-16,36
833,521	17,69
833,695	39,72
833,869	25,7
834,043	-40,39
834,217	-84,46
834,391	43,73
834,565	7,68
834,739	1,67
834,913	-14,35
835,086	-6,34
835,26	-10,35
835,434	1,67
835,608	-8,35
835,782	-18,36
835,956	-56,42
836,129	-0,33
836,303	79,78
836,477	11,68
836,651	15,69
836,824	37,72
836,998	-6,34
837,172	-36,39
837,345	109,83
837,519	-6,34
837,693	-6,34
837,866	7,68
838,04	9,68
838,213	-22,37
838,387	43,73
838,56	-36,39
838,734	17,69
838,907	103,82
839,081	73,77
839,254	15,69
839,428	-2,34
839,601	63,76
839,775	-74,44
839,948	-12,35
840,122	-2,34
840,295	17,69
840,468	39,72
840,642	13,69
840,815	43,73
840,988	-48,4
841,162	13,69
841,335	13,69
841,508	81,79
841,682	23,7
841,855	-10,35
842,028	-34,38
842,201	21,7
842,374	-46,4
842,548	43,73
842,721	-4,34
842,894	-16,36
843,067	-70,44
843,24	-92,47
843,413	-76,44
843,586	73,77
843,759	-42,39
843,932	17,69
844,105	33,72
844,278	33,72
844,451	-10,35
844,624	1,67
844,797	7,68
844,97	5,67
845,143	-14,35
845,316	13,69
845,489	-58,42
845,662	27,71
845,835	121,84
846,008	-22,37
846,18	19,7
846,353	107,82
846,526	71,77
846,699	-0,33
846,872	47,74
847,044	97,81
847,217	51,74
847,39	23,7
847,563	15,69
847,735	-66,43
847,908	25,7
848,081	-48,4
848,253	17,69
848,426	-44,4
848,598	49,74
848,771	61,76
848,944	-48,4
849,116	-18,36
849,289	21,7
849,461	3,67
849,634	5,67
849,806	27,71
849,979	-48,4
850,151	83,79
850,324	75,78
850,496	-12,35
850,668	-16,36
850,841	-6,34
851,013	107,82
851,186	-14,35
851,358	-28,37
851,53	47,74
851,703	21,7
851,875	11,68
852,047	33,72
852,219	-168,58
852,392	33,72
852,564	25,7
852,736	-50,41
852,908	-40,39
853,081	93,8
853,253	-28,37
853,425	19,7
853,597	31,71
853,769	57,75
853,941	-26,37
854,113	49,74
854,285	79,78
854,457	47,74
854,63	27,71
854,802	97,81
854,974	-2,34
855,146	13,69
855,318	113,83
855,489	3,67
855,661	45,73
855,833	-16,36
856,005	47,74
856,177	-134,53
856,349	-10,35
856,521	-30,38
856,693	-60,42
856,865	-24,37
857,036	99,81
857,208	109,83
857,38	-78,45
857,552	31,71
857,723	-10,35
857,895	-10,35
858,067	-60,42
858,239	-0,33
858,41	-78,45
858,582	37,72
858,754	13,69
858,925	-84,46
859,097	41,73
859,268	69,77
859,44	33,72
859,612	15,69
859,783	-40,39
859,955	-24,37
860,126	-82,45
860,298	-2,34
860,469	11,68
860,641	-12,35
860,812	-18,36
860,983	-2,34
861,155	43,73
861,326	11,68
861,498	-70,44
861,669	-32,38
861,84	-30,38
862,012	-2,34
862,183	1,67
862,354	49,74
862,526	-70,44
862,697	-4,34
862,868	-26,37
863,039	-10,35
863,211	-92,47
863,382	-28,37
863,553	-0,33
863,724	-64,43
863,895	-36,39
864,066	87,79
864,238	-2,34
864,409	53,74
864,58	-62,42
864,751	63,76
864,922	-42,39
865,093	23,7
865,264	-28,37
865,435	33,72
865,606	53,74
865,777	-36,39
865,948	-12,35
866,119	61,76
866,29	47,74
866,461	-50,41
866,632	-68,43
866,802	25,7
866,973	27,71
867,144	-90,46
867,315	-84,46
867,486	7,68
867,657	31,71
867,827	49,74
867,998	49,74
868,169	-14,35
868,34	109,83
868,51	-18,36
868,681	37,72
868,852	-52,41
869,022	105,82
869,193	101,81
869,364	23,7
869,534	-4,34
869,705	1,67
869,875	-6,34
870,046	-48,4
870,217	17,69
870,387	13,69
870,558	99,81
870,728	3,67
870,899	41,73
871,069	-12,35
871,239	69,77
871,41	-6,34
871,58	89,8
871,751	-22,37
871,921	-16,36
872,091	-52,41
872,262	-6,34
872,432	79,78
872,602	-92,47
872,773	13,69
872,943	15,69
873,113	99,81
873,284	-50,41
873,454	-48,4
873,624	57,75
873,794	-16,36
873,964	71,77
874,135	-64,43
874,305	19,7
874,475	-40,39
874,645	-50,41
874,815	11,68
874,985	-4,34
875,155	25,7
875,325	-14,35
875,495	-30,38
875,665	-0,33
875,835	-10,35
876,005	-84,46
876,175	-32,38
876,345	-24,37
876,515	-32,38
876,685	43,73
876,855	37,72
877,025	3,67
877,195	-70,44
877,365	65,76
877,534	9,68
877,704	-26,37
877,874	119,84
878,044	-2,34
878,214	15,69
878,383	-42,39
878,553	-24,37
878,723	-4,34
878,892	53,74
879,062	9,68
879,232	67,76
879,401	11,68
879,571	29,71
879,741	-126,52
879,91	-76,44
880,08	59,75
880,249	-22,37
880,419	23,7
880,589	-30,38
880,758	-16,36
880,928	41,73
881,097	-54,41
881,267	51,74
881,436	-50,41
881,605	63,76
881,775	-118,51
881,944	-20,36
882,114	43,73
882,283	-104,48
882,452	49,74
882,622	21,7
882,791	-36,39
882,96	-36,39
883,13	49,74
883,299	15,69
883,468	9,68
883,637	-100,48
883,807	77,78
883,976	-66,43
884,145	29,71
884,314	43,73
884,483	-32,38
884,652	31,71
884,822	-28,37
884,991	-30,38
885,16	-20,36
885,329	-74,44
885,498	-64,43
885,667	23,7
885,836	-14,35
886,005	-38,39
886,174	69,77
886,343	43,73
886,512	-34,38
886,681	-12,35
886,85	79,78
887,019	79,78
887,187	-2,34
887,356	35,72
887,525	-86,46
887,694	-88,46
887,863	17,69
888,032	-2,34
888,2	5,67
888,369	-50,41
888,538	17,69
888,707	35,72
888,875	-114,5
889,044	5,67
889,213	103,82
889,381	1,67
889,55	7,68
889,719	105,82
889,887	81,79
890,056	-106,49
890,224	41,73
890,393	45,73
890,562	87,79
890,73	17,69
890,899	67,76
891,067	41,73
891,236	-72,44
891,404	17,69
891,573	-50,41
891,741	-60,42
891,909	33,72
892,078	53,74
892,246	41,73
892,415	29,71
892,583	33,72
892,751	21,7
892,92	-6,34
893,088	-34,38
893,256	43,73
893,424	-32,38
893,593	35,72
893,761	-40,39
893,929	-20,36
894,097	-12,35
894,265	-60,42
894,434	105,82
894,602	79,78
894,77	21,7
894,938	-4,34
895,106	87,79
895,274	83,79
895,442	-12,35
895,61	107,82
895,778	19,7
895,946	29,71
896,114	39,72
896,282	-34,38
896,45	-10,35
896,618	37,72
896,786	21,7
896,954	41,73
897,122	13,69
897,29	77,78
897,458	15,69
897,625	-16,36
897,793	47,74
897,961	79,78
898,129	9,68
898,297	71,77
898,464	7,68
898,632	5,67
898,8	65,76
898,968	31,71
899,135	3,67
899,303	5,67
899,471	-42,39
899,638	47,74
899,806	31,71
899,973	83,79
900,141	47,74
900,309	-54,41
900,476	45,73
900,644	111,83
900,811	37,72
900,979	97,81
901,146	19,7
901,314	79,78
901,481	-20,36
901,649	15,69
901,816	13,69
901,983	43,73
902,151	-60,42
