Data from Subt6__6__16-13-24-489.txt Node

Date: Thu Feb 19 16:13:24 CET 2026
User: Versuch 234
Spectrometer: USB4F05580
Trigger mode: 4
Integration Time (sec): 2,000000E0
Scans to average: 1
Electric dark correction enabled: true
Nonlinearity correction enabled: false
Boxcar width: 0
XAxis mode: Wavelengths
Number of Pixels in Spectrum: 3648
>>>>>Begin Spectral Data<<<<<
197,409	-1210,09
197,623	-1210,09
197,837	-1210,09
198,051	-1302,22
198,265	-1216,1
198,479	784,8
198,693	270,06
198,907	-354,85
199,122	-495,05
199,336	392,24
199,55	420,28
199,763	-577,17
199,977	111,83
200,191	568,49
200,405	298,1
200,619	-783,47
200,833	-635,25
201,047	442,31
201,261	464,34
201,475	-789,48
201,689	-539,11
201,903	806,84
202,117	1569,94
202,331	-412,93
202,545	-384,89
202,758	754,76
202,972	929,01
203,186	290,09
203,4	-134,53
203,614	582,51
203,828	384,22
204,041	-553,14
204,255	-164,57
204,469	354,18
204,683	436,3
204,897	-653,28
205,11	-475,02
205,324	538,45
205,538	1331,6
205,752	-332,82
205,965	-733,4
206,179	316,12
206,393	1089,25
206,606	-210,64
206,82	-388,9
207,034	894,96
207,248	678,65
207,461	-525,09
207,675	-603,21
207,889	504,4
208,102	588,52
208,316	-210,64
208,529	-603,21
208,743	604,54
208,957	720,71
209,17	-260,71
209,384	-432,96
209,597	288,08
209,811	622,57
210,025	13,69
210,238	-459
210,452	896,97
210,665	480,36
210,879	-382,89
211,092	-715,37
211,306	778,8
211,519	452,32
211,733	-709,36
211,946	-495,05
212,16	358,19
212,373	542,45
212,587	-96,47
212,8	-523,09
213,014	270,06
213,227	644,6
213,44	-479,03
213,654	-559,14
213,867	466,34
214,081	528,43
214,294	-645,27
214,507	-639,26
214,721	300,1
214,934	376,21
215,148	-306,78
215,361	-450,99
215,574	258,04
215,788	732,73
216,001	-555,14
216,214	-573,16
216,428	382,22
216,641	458,33
216,854	-557,14
217,067	-619,23
217,281	630,58
217,494	632,58
217,707	-467,01
217,92	-344,83
218,134	578,51
218,347	266,05
218,56	-258,71
218,773	-685,33
218,986	528,43
219,2	344,17
219,413	-605,21
219,626	-452,99
219,839	536,44
220,052	826,87
220,265	-715,37
220,479	-250,7
220,692	790,81
220,905	197,95
221,118	77,78
221,331	-374,88
221,544	1057,2
221,757	538,45
221,97	-272,73
222,183	-322,8
222,396	566,49
222,609	1161,35
222,822	476,36
223,035	93,8
223,249	570,49
223,462	682,66
223,675	-531,1
223,887	-715,37
224,1	516,42
224,313	536,44
224,526	-699,35
224,739	-875,6
224,952	568,49
225,165	504,4
225,378	-228,66
225,591	-100,48
225,804	1017,14
226,017	652,61
226,23	187,94
226,443	-471,02
226,656	682,66
226,868	642,6
227,081	-457
227,294	-416,94
227,507	370,2
227,72	898,97
227,933	-535,11
228,145	-380,89
228,358	696,68
228,571	280,07
228,784	-617,23
228,997	-346,84
229,209	366,2
229,422	588,52
229,635	-709,36
229,848	-324,8
230,06	592,53
230,273	316,12
230,486	-432,96
230,698	-444,98
230,911	242,02
231,124	592,53
231,336	-400,91
231,549	-96,47
231,762	342,16
231,974	630,58
232,187	-400,91
232,4	-667,3
232,612	476,36
232,825	125,85
233,038	-781,47
233,25	29,71
233,463	476,36
233,675	734,73
233,888	-346,84
234,1	-743,41
234,313	526,43
234,526	434,3
234,738	-707,36
234,951	-398,91
235,163	606,55
235,376	680,65
235,588	-170,58
235,801	-380,89
236,013	648,61
236,226	396,24
236,438	282,08
236,65	-234,67
236,863	374,21
237,075	478,36
237,288	-719,38
237,5	-503,06
237,713	438,3
237,925	951,05
238,137	-272,73
238,35	-312,79
238,562	360,19
238,774	410,26
238,987	-489,04
239,199	-637,26
239,411	568,49
239,624	484,37
239,836	-489,04
240,048	-629,25
240,261	318,13
240,473	929,01
240,685	-509,07
240,897	-356,85
241,11	638,59
241,322	588,52
241,534	-398,91
241,746	-457
241,959	316,12
242,171	742,74
242,383	-306,78
242,595	-368,87
242,807	240,01
243,02	466,34
243,232	-457
243,444	-304,78
243,656	350,17
243,868	636,59
244,08	-420,94
244,293	-529,1
244,505	1137,32
244,717	586,52
244,929	-705,36
245,141	-434,96
245,353	658,62
245,565	420,28
245,777	-386,89
245,989	-200,62
246,201	728,72
246,413	354,18
246,625	-300,77
246,837	-493,05
247,049	446,31
247,261	592,53
247,473	-318,8
247,685	-164,57
247,897	306,11
248,109	564,48
248,321	-549,13
248,533	-615,23
248,745	632,58
248,957	1039,17
249,169	-539,11
249,381	-533,11
249,593	692,67
249,804	762,77
250,016	-563,15
250,228	-669,3
250,44	209,97
250,652	512,41
250,864	-725,38
251,075	25,7
251,287	798,82
251,499	1055,2
251,711	-511,07
251,923	-619,23
252,134	856,91
252,346	622,57
252,558	-459
252,77	-118,51
252,982	730,73
253,193	590,52
253,405	-424,95
253,617	153,89
253,828	512,41
254,04	484,37
254,252	-509,07
254,463	-358,85
254,675	969,07
254,887	428,29
255,098	-386,89
255,31	-641,26
255,522	490,38
255,733	744,75
255,945	-414,93
256,157	-739,41
256,368	418,27
256,58	778,8
256,791	-701,35
257,003	-188,61
257,214	89,8
257,426	334,15
257,637	-587,18
257,849	-791,48
258,061	919
258,272	488,37
258,484	-657,29
258,695	-102,48
258,907	622,57
259,118	324,14
259,329	-561,15
259,541	-521,09
259,752	656,62
259,964	874,93
260,175	-577,17
260,387	-531,1
260,598	1213,43
260,809	394,24
261,021	-82,45
261,232	-378,88
261,444	562,48
261,655	434,3
261,866	-503,06
262,078	-477,02
262,289	888,96
262,5	554,47
262,712	-310,78
262,923	-274,73
263,134	548,46
263,345	610,55
263,557	-585,18
263,768	-442,98
263,979	448,32
264,191	412,26
264,402	-450,99
264,613	-613,22
264,824	600,54
265,035	780,8
265,247	-414,93
265,458	-284,75
265,669	462,34
265,88	660,62
266,091	3,67
266,302	-681,32
266,514	526,43
266,725	502,39
266,936	-553,14
267,147	-150,55
267,358	348,17
267,569	53,74
267,78	-224,66
267,991	-420,94
268,202	544,46
268,414	876,94
268,625	-699,35
268,836	-497,05
269,047	458,33
269,258	334,15
269,469	-763,44
269,68	-200,62
269,891	352,18
270,102	738,74
270,313	-358,85
270,524	-527,1
270,735	558,48
270,945	518,42
271,156	-284,75
271,367	-322,8
271,578	350,17
271,789	592,53
272	-432,96
272,211	-541,12
272,422	328,14
272,633	460,33
272,844	-390,9
273,054	-469,01
273,265	484,37
273,476	584,51
273,687	-725,38
273,898	-687,33
274,109	380,22
274,319	534,44
274,53	-68,43
274,741	-577,17
274,952	582,51
275,162	476,36
275,373	-388,9
275,584	-635,25
275,795	424,28
276,005	638,59
276,216	-88,46
276,427	-539,11
276,637	430,29
276,848	406,26
277,059	-613,22
277,269	-66,43
277,48	422,28
277,691	985,09
277,901	73,77
278,112	-294,76
278,323	358,19
278,533	274,06
278,744	-280,74
278,954	-557,14
279,165	534,44
279,376	472,35
279,586	-94,47
279,797	-535,11
280,007	396,24
280,218	580,51
280,428	-611,22
280,639	-186,6
280,849	644,6
281,06	478,36
281,27	-158,56
281,481	-563,15
281,691	510,41
281,902	394,24
282,112	33,72
282,322	-254,7
282,533	700,68
282,743	572,5
282,954	-150,55
283,164	-370,87
283,374	454,33
283,585	584,51
283,795	-226,66
284,006	-330,81
284,216	260,04
284,426	636,59
284,637	-340,83
284,847	-509,07
285,057	550,46
285,268	997,11
285,478	-555,14
285,688	-326,81
285,898	728,72
286,109	432,29
286,319	-152,55
286,529	-228,66
286,739	424,28
286,95	296,1
287,16	-533,11
287,37	105,82
287,58	254,03
287,79	268,06
288,001	-166,57
288,211	-669,3
288,421	566,49
288,631	492,38
288,841	-318,8
289,051	-416,94
289,261	246,02
289,471	486,37
289,682	-234,67
289,892	-22,37
290,102	342,16
290,312	514,41
290,522	-234,67
290,732	-158,56
290,942	510,41
291,152	908,98
291,362	-104,48
291,572	-76,44
291,782	898,97
291,992	536,44
292,202	-493,05
292,412	478,36
292,622	201,96
292,832	338,16
293,042	-340,83
293,252	-685,33
293,462	-86,46
293,672	137,87
293,881	-368,87
294,091	-386,89
294,301	424,28
294,511	219,99
294,721	-513,08
294,931	-362,86
295,141	209,97
295,35	167,91
295,56	274,06
295,77	-134,53
295,98	526,43
296,19	73,77
296,4	-286,75
296,609	-84,46
296,819	578,51
297,029	31,71
297,239	-202,63
297,448	-489,04
297,658	79,78
297,868	256,04
298,077	-90,46
298,287	159,9
298,497	878,94
298,706	165,91
298,916	-232,67
299,126	-503,06
299,335	11,68
299,545	754,76
299,755	-200,62
299,964	-505,07
300,174	51,74
300,384	11,68
300,593	-302,77
300,803	-262,71
301,012	656,62
301,222	77,78
301,431	-452,99
301,641	-172,58
301,851	-68,43
302,06	-32,38
302,27	-418,94
302,479	-260,71
302,689	-58,42
302,898	346,17
303,107	-352,84
303,317	-322,8
303,526	576,5
303,736	125,85
303,945	197,95
304,155	-551,13
304,364	199,96
304,574	444,31
304,783	-360,86
304,992	-358,85
305,202	638,59
305,411	-0,33
305,62	-577,17
305,83	-236,68
306,039	1658,07
306,248	-16,36
306,458	-457
306,667	-396,91
306,876	69,77
307,086	728,72
307,295	73,77
307,504	-356,85
307,713	-146,55
307,923	-36,39
308,132	-300,77
308,341	-234,67
308,55	199,96
308,76	584,51
308,969	-4,34
309,178	-469,01
309,387	462,34
309,596	-14,35
309,805	97,81
310,015	-182,6
310,224	816,85
310,433	215,98
310,642	-473,02
310,851	-390,9
311,06	258,04
311,269	187,94
311,478	-428,96
311,687	-647,27
311,896	21,7
312,106	153,89
312,315	-192,61
312,524	-292,76
312,733	-72,44
312,942	99,81
313,151	-555,14
313,36	-364,86
313,569	117,84
313,778	378,21
313,987	-454,99
314,195	-304,78
314,404	644,6
314,613	63,76
314,822	-294,76
315,031	-438,97
315,24	149,88
315,449	440,3
315,658	-392,9
315,867	-388,9
316,076	514,41
316,284	390,23
316,493	-378,88
316,702	-262,71
316,911	67,76
317,12	458,33
317,329	-461
317,537	-535,11
317,746	137,87
317,955	-44,4
318,164	-352,84
318,372	-252,7
318,581	75,78
318,79	322,13
318,999	-164,57
319,207	-110,49
319,416	244,02
319,625	121,84
319,833	-424,95
320,042	-545,12
320,251	238,01
320,459	129,85
320,668	-72,44
320,877	-400,91
321,085	143,88
321,294	446,31
321,502	-605,21
321,711	-436,97
321,92	147,88
322,128	438,3
322,337	-457
322,545	-254,7
322,754	394,24
322,962	-98,48
323,171	-364,86
323,379	-487,04
323,588	452,32
323,796	674,64
324,005	-483,03
324,213	-475,02
324,422	35,72
324,63	-24,37
324,839	512,41
325,047	-250,7
325,256	296,1
325,464	736,73
325,672	-54,41
325,881	-220,65
326,089	432,29
326,297	171,92
326,506	-30,38
326,714	-208,64
326,923	87,79
327,131	326,14
327,339	-308,78
327,548	-192,61
327,756	518,42
327,964	552,47
328,172	19,7
328,381	-12,35
328,589	878,94
328,797	1055,2
329,005	420,28
329,214	1271,51
329,422	3426,63
329,63	3769,13
329,838	3294,44
330,046	3262,4
330,255	3408,61
330,463	2108,72
330,671	975,08
330,879	802,83
331,087	1029,16
331,295	834,88
331,503	-54,41
331,712	-631,25
331,92	314,12
332,128	254,03
332,336	-116,5
332,544	-106,49
332,752	458,33
332,96	266,05
333,168	-438,97
333,376	-96,47
333,584	242,02
333,792	-66,43
334	-274,73
334,208	-180,6
334,416	380,22
334,624	-30,38
334,832	-216,65
335,04	-519,09
335,248	408,26
335,456	450,32
335,664	-258,71
335,872	-286,75
336,08	234,01
336,287	550,46
336,495	-362,86
336,703	-316,79
336,911	-34,38
337,119	199,96
337,327	-416,94
337,535	-100,48
337,742	638,59
337,95	209,97
338,158	39,72
338,366	-483,03
338,573	560,48
338,781	105,82
338,989	-166,57
339,197	-497,05
339,404	802,83
339,612	240,01
339,82	-196,62
340,028	-138,53
340,235	516,42
340,443	115,83
340,651	-503,06
340,858	-547,13
341,066	468,35
341,274	690,67
341,481	-479,03
341,689	-503,06
341,896	167,91
342,104	250,03
342,312	-374,88
342,519	-519,09
342,727	139,87
342,934	133,86
343,142	-469,01
343,349	-94,47
343,557	-30,38
343,765	217,98
343,972	-64,43
344,18	-62,42
344,387	187,94
344,594	556,47
344,802	-382,89
345,009	-581,18
345,217	330,15
345,424	-12,35
345,632	175,92
345,839	-314,79
346,047	382,22
346,254	496,39
346,461	-316,79
346,669	-316,79
346,876	119,84
347,083	384,22
347,291	-362,86
347,498	55,75
347,705	43,73
347,913	256,04
348,12	-404,92
348,327	-212,64
348,535	386,23
348,742	572,5
348,949	-376,88
349,156	-34,38
349,364	75,78
349,571	17,69
349,778	-38,39
349,985	-422,95
350,192	254,03
350,4	-112,5
350,607	-475,02
350,814	-300,77
351,021	213,98
351,228	163,9
351,435	-314,79
351,643	-116,5
351,85	450,32
352,057	342,16
352,264	-422,95
352,471	-384,89
352,678	209,97
352,885	-10,35
353,092	65,76
353,299	-212,64
353,506	147,88
353,713	230
353,92	-368,87
354,127	39,72
354,334	696,68
354,541	89,8
354,748	-312,79
354,955	-457
355,162	274,06
355,369	31,71
355,576	-186,6
355,783	-304,78
355,99	332,15
356,197	175,92
356,404	-402,92
356,611	-238,68
356,817	664,63
357,024	119,84
357,231	-316,79
357,438	-479,03
357,645	306,11
357,852	262,05
358,058	-366,87
358,265	-342,83
358,472	195,95
358,679	502,39
358,885	-84,46
359,092	-551,13
359,299	546,46
359,506	758,77
359,712	-82,45
359,919	-288,75
360,126	410,26
360,333	137,87
360,539	-376,88
360,746	-294,76
360,953	506,4
361,159	394,24
361,366	-298,77
361,572	225,99
361,779	159,9
361,986	624,57
362,192	-394,91
362,399	-326,81
362,605	774,79
362,812	17,69
363,019	298,1
363,225	-14,35
363,432	448,32
363,638	466,34
363,845	-288,75
364,051	-452,99
364,258	133,86
364,464	143,88
364,671	213,98
364,877	-511,07
365,084	548,46
365,29	346,17
365,496	-286,75
365,703	-527,1
365,909	394,24
366,116	344,17
366,322	-256,71
366,528	-312,79
366,735	276,07
366,941	316,12
367,147	-50,41
367,354	-46,4
367,56	492,38
367,766	396,24
367,973	-452,99
368,179	-260,71
368,385	758,77
368,592	240,01
368,798	-10,35
369,004	-448,98
369,21	442,31
369,417	127,85
369,623	-581,18
369,829	51,74
370,035	410,26
370,241	175,92
370,448	-551,13
370,654	-487,04
370,86	324,14
371,066	490,38
371,272	-278,74
371,478	-467,01
371,684	2951,95
371,891	542,45
372,097	-501,06
372,303	-270,73
372,509	272,06
372,715	500,39
372,921	-370,87
373,127	-372,87
373,333	326,14
373,539	107,82
373,745	-184,6
373,951	-741,41
374,157	5,67
374,363	264,05
374,569	-140,54
374,775	181,93
374,981	774,79
375,187	177,92
375,393	-264,72
375,599	-348,84
375,804	314,12
376,01	75,78
376,216	-390,9
376,422	-258,71
376,628	354,18
376,834	248,03
377,04	39,72
377,246	-148,55
377,451	624,57
377,657	344,17
377,863	-198,62
378,069	-114,5
378,274	380,22
378,48	71,77
378,686	-356,85
378,892	-306,78
379,097	690,67
379,303	650,61
379,509	-551,13
379,715	476,36
379,92	1023,15
380,126	310,12
380,332	29,71
380,537	199,96
380,743	121,84
380,949	628,58
381,154	-430,96
381,36	-252,7
381,565	83,79
381,771	43,73
381,977	-493,05
382,182	-270,73
382,388	221,99
382,593	528,43
382,799	-178,59
383,004	-459
383,21	396,24
383,415	414,27
383,621	123,85
383,826	-234,67
384,032	163,9
384,237	822,86
384,443	-565,15
384,648	-499,06
384,854	678,65
385,059	931,02
385,265	-142,54
385,47	-20,36
385,675	670,64
385,881	448,32
386,086	-364,86
386,291	-617,23
386,497	560,48
386,702	280,07
386,907	-178,59
387,113	-160,57
387,318	193,95
387,523	498,39
387,729	-581,18
387,934	-601,2
388,139	242,02
388,344	-14,35
388,55	-334,82
388,755	-188,61
388,96	63,76
389,165	248,03
389,371	-308,78
389,576	-182,6
389,781	-60,42
389,986	582,51
390,191	-286,75
390,396	-507,07
390,601	618,56
390,807	336,15
391,012	-284,75
391,217	-316,79
391,422	362,19
391,627	560,48
391,832	-186,6
392,037	-312,79
392,242	296,1
392,447	646,6
392,652	-655,28
392,857	-553,14
393,062	219,99
393,267	262,05
393,472	-312,79
393,677	-184,6
393,882	434,3
394,087	260,04
394,292	-262,71
394,497	-198,62
394,702	338,16
394,907	382,22
395,112	81,79
395,317	-370,87
395,521	478,36
395,726	266,05
395,931	-68,43
396,136	-683,32
396,341	906,98
396,546	203,96
396,75	-362,86
396,955	27,71
397,16	698,68
397,365	286,08
397,57	97,81
397,774	-348,84
397,979	400,25
398,184	496,39
398,389	-579,17
398,593	-511,07
398,798	590,52
399,003	157,9
399,207	-198,62
399,412	-238,68
399,617	187,94
399,821	536,44
400,026	-326,81
400,231	5,67
400,435	71,77
400,64	304,11
400,844	-172,58
401,049	-118,51
401,254	694,67
401,458	195,95
401,663	111,83
401,867	7,68
402,072	161,9
402,276	428,29
402,481	-174,59
402,685	-583,18
402,89	406,26
403,094	342,16
403,299	-384,89
403,503	-374,88
403,708	852,9
403,912	302,1
404,116	-128,52
404,321	-214,64
404,525	448,32
404,73	546,46
404,934	-288,75
405,138	-150,55
405,343	646,6
405,547	904,98
405,751	-62,42
405,956	-74,44
406,16	706,69
406,364	1043,18
406,569	-20,36
406,773	-511,07
406,977	486,37
407,181	730,73
407,386	-394,91
407,59	53,74
407,794	670,64
407,998	272,06
408,202	-232,67
408,407	-392,9
408,611	296,1
408,815	290,09
409,019	-98,48
409,223	-444,98
409,427	422,28
409,632	590,52
409,836	-312,79
410,04	-28,37
410,244	408,26
410,448	189,94
410,652	-194,62
410,856	-483,03
411,06	438,3
411,264	424,28
411,468	-378,88
411,672	-238,68
411,876	177,92
412,08	388,23
412,284	-228,66
412,488	-523,09
412,692	532,44
412,896	382,22
413,1	-479,03
413,304	-288,75
413,508	602,54
413,712	442,31
413,916	-450,99
414,12	-240,68
414,323	384,22
414,527	173,92
414,731	364,19
414,935	-270,73
415,139	618,56
415,343	696,68
415,546	-122,51
415,75	-36,39
415,954	201,96
416,158	902,98
416,361	-364,86
416,565	-272,73
416,769	386,23
416,973	594,53
417,176	-220,65
417,38	131,86
417,584	582,51
417,788	862,92
417,991	-38,39
418,195	-270,73
418,398	846,89
418,602	594,53
418,806	-461
419,009	-32,38
419,213	490,38
419,417	1071,22
419,62	95,81
419,824	-278,74
420,027	600,54
420,231	460,33
420,434	-146,55
420,638	-330,81
420,841	444,31
421,045	568,49
421,248	-434,96
421,452	-372,87
421,655	674,64
421,859	418,27
422,062	-589,19
422,266	-314,79
422,469	698,68
422,673	91,8
422,876	-250,7
423,079	-422,95
423,283	354,18
423,486	382,22
423,689	236,01
423,893	-306,78
424,096	492,38
424,299	440,3
424,503	17,69
424,706	-448,98
424,909	272,06
425,113	294,09
425,316	-442,98
425,519	-24,37
425,722	368,2
425,926	694,67
426,129	-501,06
426,332	348,17
426,535	452,32
426,739	740,74
426,942	137,87
427,145	37,72
427,348	282,08
427,551	238,01
427,754	-244,69
427,957	-316,79
428,161	258,04
428,364	760,77
428,567	-22,37
428,77	-178,59
428,973	490,38
429,176	654,62
429,379	262,05
429,582	-98,48
429,785	380,22
429,988	532,44
430,191	-400,91
430,394	-396,91
430,597	398,24
430,8	330,15
431,003	65,76
431,206	-284,75
431,409	494,38
431,612	364,19
431,815	-294,76
432,018	-188,61
432,221	356,18
432,423	336,15
432,626	127,85
432,829	-418,94
433,032	746,75
433,235	594,53
433,438	-154,56
433,64	143,88
433,843	420,28
434,046	111,83
434,249	-509,07
434,452	-607,21
434,654	766,78
434,857	370,2
435,06	-426,95
435,263	-322,8
435,465	282,08
435,668	642,6
435,871	-380,89
436,073	-356,85
436,276	298,1
436,479	608,55
436,681	-527,1
436,884	-354,85
437,087	244,02
437,289	500,39
437,492	308,11
437,694	-268,72
437,897	246,02
438,1	400,25
438,302	-346,84
438,505	-248,69
438,707	732,73
438,91	300,1
439,112	-545,12
439,315	-382,89
439,517	232
439,72	342,16
439,922	-322,8
440,125	-328,81
440,327	167,91
440,529	566,49
440,732	-505,07
440,934	159,9
441,137	209,97
441,339	450,32
441,541	-138,53
441,744	-22,37
441,946	456,33
442,148	221,99
442,351	-450,99
442,553	-308,78
442,755	472,35
442,958	342,16
443,16	-264,72
443,362	-475,02
443,565	426,28
443,767	510,41
443,969	-134,53
444,171	-92,47
444,373	308,11
444,576	690,67
444,778	-465,01
444,98	-388,9
445,182	622,57
445,384	380,22
445,586	-438,97
445,789	-414,93
445,991	614,56
446,193	584,51
446,395	-459
446,597	-360,86
446,799	712,7
447,001	556,47
447,203	-388,9
447,405	-240,68
447,607	191,94
447,809	183,93
448,011	-146,55
448,213	-10,35
448,415	620,57
448,617	522,42
448,819	-174,59
449,021	-348,84
449,223	201,96
449,425	774,79
449,627	-258,71
449,829	-150,55
450,031	394,24
450,233	614,56
450,435	-142,54
450,636	-479,03
450,838	284,08
451,04	322,13
451,242	-224,66
451,444	-340,83
451,646	418,27
451,847	460,33
452,049	-661,29
452,251	-110,49
452,453	656,62
452,654	698,68
452,856	-214,64
453,058	-42,39
453,26	586,52
453,461	678,65
453,663	81,79
453,865	-264,72
454,066	398,24
454,268	850,9
454,47	205,97
454,671	223,99
454,873	1143,32
455,074	1021,15
455,276	268,06
455,478	-34,38
455,679	362,19
455,881	562,48
456,082	-499,06
456,284	-40,39
456,485	400,25
456,687	404,25
456,888	642,6
457,09	-260,71
457,291	428,29
457,493	578,51
457,694	-469,01
457,896	-26,37
458,097	584,51
458,299	266,05
458,5	131,86
458,701	-372,87
458,903	1007,13
459,104	880,94
459,306	-360,86
459,507	-118,51
459,708	456,33
459,91	348,17
460,111	564,48
460,312	-148,55
460,514	588,52
460,715	616,56
460,916	49,74
461,117	-266,72
461,319	382,22
461,52	1003,12
461,721	-282,74
461,922	-192,61
462,124	744,75
462,325	814,85
462,526	-206,63
462,727	-164,57
462,928	390,23
463,129	344,17
463,331	129,85
463,532	-292,76
463,733	943,03
463,934	338,16
464,135	-312,79
464,336	-392,9
464,537	482,37
464,738	606,55
464,939	119,84
465,14	-270,73
465,341	662,63
465,542	107,82
465,743	-16,36
465,944	-104,48
466,145	438,3
466,346	961,06
466,547	-442,98
466,748	-112,5
466,949	221,99
467,15	382,22
467,351	-364,86
467,552	143,88
467,753	442,31
467,953	1113,28
468,154	47,74
468,355	-372,87
468,556	600,54
468,757	572,5
468,958	244,02
469,158	-493,05
469,359	384,22
469,56	201,96
469,761	-465,01
469,962	-88,46
470,162	248,03
470,363	410,26
470,564	-316,79
470,764	69,77
470,965	304,11
471,166	558,48
471,366	171,92
471,567	2737,64
471,768	556,47
471,968	630,58
472,169	-324,8
472,37	-521,09
472,57	326,14
472,771	236,01
472,971	203,96
473,172	-232,67
473,373	266,05
473,573	594,53
473,774	-340,83
473,974	31,71
474,175	1307,56
474,375	660,62
474,576	-256,71
474,776	-196,62
474,977	584,51
475,177	732,73
475,377	141,87
475,578	254,03
475,778	716,71
475,979	480,36
476,179	538,45
476,379	-172,58
476,58	438,3
476,78	292,09
476,981	-166,57
477,181	-210,64
477,381	344,17
477,582	714,7
477,782	-216,65
477,982	-330,81
478,182	590,52
478,383	107,82
478,583	586,52
478,783	-292,76
478,983	704,69
479,184	979,09
479,384	-32,38
479,584	119,84
479,784	434,3
479,984	414,27
480,184	-360,86
480,385	-258,71
480,585	586,52
480,785	298,1
480,985	-268,72
481,185	-138,53
481,385	628,58
481,585	360,19
481,785	-214,64
481,985	15,69
482,185	682,66
482,385	530,44
482,585	-360,86
482,785	-32,38
482,985	442,31
483,185	750,75
483,385	-440,97
483,585	-80,45
483,785	432,29
483,985	382,22
484,185	-374,88
484,385	-501,06
484,585	534,44
484,785	368,2
484,985	-278,74
485,185	-216,65
485,384	896,97
485,584	234,01
485,784	-204,63
485,984	-186,6
486,184	524,43
486,383	59,75
486,583	514,41
486,783	-236,68
486,983	490,38
487,183	668,64
487,382	-94,47
487,582	-350,84
487,782	642,6
487,981	286,08
488,181	-186,6
488,381	-491,05
488,58	906,98
488,78	402,25
488,98	-330,81
489,179	-454,99
489,379	804,83
489,579	894,96
489,778	-4,34
489,978	-86,46
490,177	424,28
490,377	598,53
490,576	3,67
490,776	-118,51
490,975	592,53
491,175	454,33
491,374	408,26
491,574	-292,76
491,773	242,02
491,973	937,02
492,172	113,83
492,372	201,96
492,571	2260,94
492,771	1147,33
492,97	458,33
493,169	1181,38
493,369	991,1
493,568	748,75
493,767	-306,78
493,967	-20,36
494,166	764,78
494,365	442,31
494,565	-160,57
494,764	444,31
494,963	468,35
495,163	2156,79
495,362	-94,47
495,561	-262,71
495,76	428,29
495,959	514,41
496,159	422,28
496,358	147,88
496,557	666,63
496,756	953,05
496,955	620,57
497,155	1491,83
497,354	2901,87
497,553	2693,57
497,752	2355,08
497,951	2096,71
498,15	1593,98
498,349	1325,59
498,548	25,7
498,747	264,05
498,946	808,84
499,145	774,79
499,344	89,8
499,543	290,09
499,742	336,15
499,941	506,4
500,14	-374,88
500,339	73,77
500,538	612,55
500,737	923
500,936	-34,38
501,135	-210,64
501,334	382,22
501,533	540,45
501,732	-352,84
501,931	-352,84
502,129	472,35
502,328	1035,17
502,527	-26,37
502,726	-214,64
502,925	628,58
503,123	780,8
503,322	201,96
503,521	-240,68
503,72	338,16
503,919	378,21
504,117	-250,7
504,316	167,91
504,515	596,53
504,713	532,44
504,912	-338,82
505,111	109,83
505,309	582,51
505,508	364,19
505,707	-72,44
505,905	-412,93
506,104	378,21
506,302	392,24
506,501	-238,68
506,7	516,42
506,898	564,48
507,097	812,84
507,295	215,98
507,494	-294,76
507,692	542,45
507,891	530,44
508,089	-242,69
508,288	578,51
508,486	502,39
508,685	606,55
508,883	175,92
509,082	-180,6
509,28	678,65
509,478	346,17
509,677	79,78
509,875	-242,69
510,073	1175,37
510,272	472,35
510,47	-190,61
510,669	-254,7
510,867	540,45
511,065	656,62
511,263	-116,5
511,462	-214,64
511,66	320,13
511,858	646,6
512,056	-388,9
512,255	1575,95
512,453	590,52
512,651	390,23
512,849	139,87
513,048	-10,35
513,246	836,88
513,444	466,34
513,642	33,72
513,84	15,69
514,038	648,61
514,236	975,08
514,435	504,4
514,633	1127,3
514,831	1301,55
515,029	1313,57
515,227	195,95
515,425	179,93
515,623	384,22
515,821	294,09
516,019	-70,44
516,217	-110,49
516,415	700,68
516,613	776,79
516,811	159,9
517,009	-210,64
517,207	548,46
517,405	616,56
517,602	-40,39
517,8	-2,34
517,998	548,46
518,196	1053,19
518,394	55,75
518,592	-196,62
518,79	1013,14
518,987	796,82
519,185	-248,69
519,383	-334,82
519,581	1309,57
519,779	630,58
519,976	-18,36
520,174	-164,57
520,372	474,35
520,57	254,03
520,767	-208,64
520,965	-170,58
521,163	552,47
521,36	708,69
521,558	-242,69
521,756	228
521,953	652,61
522,151	374,21
522,349	-142,54
522,546	-84,46
522,744	1219,43
522,941	456,33
523,139	223,99
523,336	197,95
523,534	806,84
523,731	790,81
523,929	-302,77
524,126	-270,73
524,324	444,31
524,521	722,71
524,719	300,1
524,916	258,04
525,114	278,07
525,311	414,27
525,509	326,14
525,706	-172,58
525,903	1752,21
526,101	486,37
526,298	3,67
526,496	-148,55
526,693	464,34
526,89	724,72
527,088	11,68
527,285	-206,63
527,482	740,74
527,679	766,78
527,877	-128,52
528,074	45,73
528,271	370,2
528,468	654,62
528,666	-68,43
528,863	290,09
529,06	506,4
529,257	1075,23
529,454	272,06
529,652	-298,77
529,849	1245,47
530,046	750,75
530,243	-178,59
530,44	-268,72
530,637	392,24
530,834	716,71
531,031	83,79
531,228	-96,47
531,425	1247,48
531,622	1101,26
531,819	-22,37
532,016	161,9
532,213	750,75
532,41	746,75
532,607	450,32
532,804	209,97
533,001	792,82
533,198	498,39
533,395	85,79
533,592	-34,38
533,789	390,23
533,986	786,81
534,183	73,77
534,38	-28,37
534,576	814,85
534,773	786,81
534,97	69,77
535,167	-134,53
535,364	894,96
535,561	688,66
535,757	93,8
535,954	-156,56
536,151	862,92
536,348	584,51
536,544	356,18
536,741	-266,72
536,938	698,68
537,134	900,97
537,331	51,74
537,528	-78,45
537,724	576,5
537,921	616,56
538,118	51,74
538,314	-282,74
538,511	796,82
538,707	935,02
538,904	298,1
539,101	157,9
539,297	748,75
539,494	638,59
539,69	-6,34
539,887	1,67
540,083	710,7
540,28	967,07
540,476	566,49
540,673	-34,38
540,869	906,98
541,066	544,46
541,262	63,76
541,458	225,99
541,655	1039,17
541,851	917
542,048	161,9
542,244	5,67
542,44	1027,16
542,637	672,64
542,833	256,04
543,029	13,69
543,226	712,7
543,422	1161,35
543,618	-0,33
543,814	59,75
544,011	630,58
544,207	592,53
544,403	364,19
544,599	87,79
544,796	620,57
544,992	752,76
545,188	452,32
545,384	-48,4
545,58	632,58
545,776	1417,72
545,972	238,01
546,169	382,22
546,365	908,98
546,561	979,09
546,757	326,14
546,953	242,02
547,149	656,62
547,345	852,9
547,541	388,23
547,737	17,69
547,933	890,96
548,129	758,77
548,325	179,93
548,521	238,01
548,717	694,67
548,913	1189,39
549,109	404,25
549,305	240,01
549,501	1147,33
549,697	1071,22
549,892	205,97
550,088	137,87
550,284	1019,14
550,48	1301,55
550,676	496,39
550,872	298,1
551,067	1033,16
551,263	963,06
551,459	119,84
551,655	656,62
551,85	1119,29
552,046	656,62
552,242	195,95
552,438	456,33
552,633	975,08
552,829	1015,14
553,025	414,27
553,22	372,21
553,416	1399,7
553,612	925,01
553,807	490,38
554,003	374,21
554,198	1005,12
554,394	1748,2
554,59	300,1
554,785	179,93
554,981	708,69
555,176	1053,19
555,372	484,37
555,567	290,09
555,763	1043,18
555,958	836,88
556,154	494,38
556,349	668,64
556,545	1425,73
556,74	1107,27
556,936	592,53
557,131	636,59
557,326	1143,32
557,522	1513,86
557,717	354,18
557,912	658,62
558,108	1149,33
558,303	1437,75
558,498	1197,4
558,694	1165,36
558,889	1477,81
559,084	1473,8
559,28	824,86
559,475	902,98
559,67	1736,18
559,865	1798,27
560,061	890,96
560,256	898,97
560,451	1535,89
560,646	1710,15
560,841	706,69
561,037	442,31
561,232	1501,84
561,427	1788,26
561,622	532,44
561,817	706,69
562,012	1636,04
562,207	1786,26
562,402	820,86
562,597	750,75
562,792	1435,75
562,987	1758,22
563,182	910,99
563,377	993,11
563,572	1964,51
563,767	1475,81
563,962	1413,72
564,157	1265,5
564,352	1966,52
564,547	2140,77
564,742	1720,16
564,937	1836,33
565,132	2415,17
565,327	2709,59
565,522	2485,27
565,716	2070,67
565,911	2451,22
566,106	2561,38
566,301	2098,71
566,496	2034,62
566,691	3300,45
566,885	4744,54
567,08	5792,06
567,275	8267,65
567,47	14174,21
567,664	19021,24
567,859	21424,72
568,054	21414,71
568,248	22990,99
568,443	20004,67
568,638	12900,37
568,832	9008,73
569,027	6561,18
569,222	4692,47
569,416	3148,23
569,611	2998,01
569,805	2641,5
570	2949,94
570,195	1778,24
570,389	1692,12
570,584	2529,33
570,778	2559,38
570,973	1463,79
571,167	1998,56
571,362	2072,67
571,556	1872,38
571,751	1668,08
571,945	1481,81
572,139	2024,6
572,334	2046,63
572,528	1383,67
572,723	1543,9
572,917	2507,3
573,111	2210,87
573,306	1942,48
573,5	1826,31
573,694	2234,91
573,889	2797,72
574,083	1626,02
574,277	1922,45
574,472	2094,7
574,666	2681,55
574,86	1461,79
575,054	1890,41
575,249	2591,42
575,443	2825,76
575,637	2018,59
575,831	1990,55
576,025	2933,92
576,219	2551,37
576,414	2405,15
576,608	2230,9
576,802	3014,04
576,996	2847,79
577,19	2192,85
577,384	2244,92
577,578	3008,03
577,772	3054,09
577,966	2793,72
578,16	2943,93
578,354	3460,68
578,548	3640,94
578,742	3016,04
578,936	3286,43
579,13	3865,27
579,324	3935,37
579,518	3959,41
579,712	3654,96
579,906	4133,66
580,1	4378,01
580,294	4067,56
580,488	5585,76
580,682	8071,37
580,875	8331,74
581,069	8395,84
581,263	9801,88
581,457	10448,81
581,651	9811,89
581,845	9539,5
582,038	9327,19
582,232	9555,52
582,426	9068,81
582,62	9459,38
582,813	9361,24
583,007	9647,65
583,201	8782,4
583,394	8293,69
583,588	8403,85
583,782	8690,26
583,975	8932,62
584,169	9381,27
584,363	9837,93
584,556	10621,06
584,75	11328,09
584,943	11360,13
585,137	11546,4
585,33	12826,26
585,524	12932,41
585,718	13615,4
585,911	15157,64
586,105	17859,56
586,298	19511,95
586,491	22664,52
586,685	26181,62
586,878	34856,19
587,072	61054,17
587,265	61280,5
587,459	62494,26
587,652	62746,62
587,845	63153,21
588,039	63063,08
588,232	63105,14
588,426	63145,2
588,619	63119,16
588,812	63099,14
589,005	63155,22
589,199	63181,25
589,392	63131,18
589,585	63195,27
589,779	63167,23
589,972	63231,33
590,165	63167,23
590,358	63143,2
590,551	63137,19
590,745	63133,18
590,938	63167,23
591,131	63113,16
591,324	63119,16
591,517	63167,23
591,71	63159,22
591,904	63107,15
592,097	63185,26
592,29	63209,3
592,483	63097,13
592,676	63179,25
592,869	63173,24
593,062	63181,25
593,255	63171,24
593,448	63147,21
593,641	63225,32
593,834	63223,32
594,027	63081,11
594,22	63151,21
594,413	63151,21
594,606	63127,18
594,799	63171,24
594,992	63155,22
595,184	63167,23
595,377	63079,11
595,57	63141,2
595,763	63157,22
595,956	63133,18
596,149	63213,3
596,341	63227,32
596,534	63037,05
596,727	63153,21
596,92	63209,3
597,113	63175,25
597,305	63247,35
597,498	63139,19
597,691	63213,3
597,883	63175,25
598,076	63101,14
598,269	63139,19
598,462	63183,26
598,654	63227,32
598,847	63211,3
599,039	63149,21
599,232	63229,32
599,425	63123,17
599,617	63161,23
599,81	63151,21
600,002	63239,34
600,195	63181,25
600,387	63205,29
600,58	63155,22
600,772	63135,19
600,965	63083,11
601,157	63177,25
601,35	63165,23
601,542	63163,23
601,735	63143,2
601,927	63099,14
602,12	63083,11
602,312	63219,31
602,504	63107,15
602,697	63183,26
602,889	63151,21
603,082	63135,19
603,274	63155,22
603,466	63169,24
603,659	63189,27
603,851	63201,28
604,043	63119,16
604,235	63073,1
604,428	63207,29
604,62	63185,26
604,812	63159,22
605,004	63243,34
605,197	63147,21
605,389	63175,25
605,581	63161,23
605,773	63129,18
605,965	63179,25
606,157	63175,25
606,349	63125,17
606,542	63107,15
606,734	63145,2
606,926	63201,28
607,118	63221,31
607,31	63227,32
607,502	63193,27
607,694	63227,32
607,886	63147,21
608,078	63109,15
608,27	63151,21
608,462	63225,32
608,654	63191,27
608,846	63165,23
609,038	63083,11
609,23	63179,25
609,422	63141,2
609,614	63103,14
609,805	63187,26
609,997	63127,18
610,189	63095,13
610,381	63127,18
610,573	63151,21
610,765	63119,16
610,957	63131,18
611,148	63171,24
611,34	63155,22
611,532	63207,29
611,724	63191,27
611,915	63151,21
612,107	63135,19
612,299	63179,25
612,491	61122,27
612,682	63263,37
612,874	690,67
613,066	22344,06
613,257	1616,01
613,449	738,74
613,64	1073,22
613,832	1912,44
614,024	2284,98
614,215	1932,47
614,407	1986,55
614,598	3430,64
614,79	4329,94
614,981	4780,6
615,173	4792,61
615,364	5752
615,556	5455,58
615,747	4311,92
615,939	3020,04
616,13	2809,74
616,322	2457,23
616,513	1133,31
616,705	1109,27
616,896	1876,39
617,087	1269,51
617,279	941,03
617,47	546,46
617,661	1057,2
617,853	937,02
618,044	640,6
618,235	708,69
618,427	1255,49
618,618	1017,14
618,809	702,69
619	432,29
619,192	1105,27
619,383	874,93
619,574	642,6
619,765	766,78
619,957	1001,12
620,148	1067,21
620,339	430,29
620,53	590,52
620,721	1335,6
620,912	902,98
621,103	710,7
621,294	334,15
621,485	919
621,677	1185,39
621,868	308,11
622,059	858,91
622,25	816,85
622,441	778,8
622,632	292,09
622,823	748,75
623,014	947,04
623,205	1421,73
623,395	161,9
623,586	246,02
623,777	710,7
623,968	608,55
624,159	211,97
624,35	398,24
624,541	894,96
624,732	744,75
624,923	232
625,113	380,22
625,304	594,53
625,495	896,97
625,686	508,4
625,877	382,22
626,067	520,42
626,258	1227,45
626,449	159,9
626,639	368,2
626,83	1047,18
627,021	678,65
627,211	754,76
627,402	155,89
627,593	3580,86
627,783	726,72
627,974	616,56
628,165	472,35
628,355	1353,63
628,546	670,64
628,736	402,25
628,927	23,7
629,117	832,87
629,308	742,74
629,498	-8,35
629,689	418,27
629,879	686,66
630,07	674,64
630,26	43,73
630,451	326,14
630,641	524,43
630,832	560,48
631,022	606,55
631,212	-52,41
631,403	878,94
631,593	1113,28
631,784	105,82
631,974	368,2
632,164	662,63
632,355	608,55
632,545	428,29
632,735	350,17
632,925	965,07
633,116	957,05
633,306	776,79
633,496	9,68
633,686	882,95
633,876	682,66
634,067	-134,53
634,257	824,86
634,447	566,49
634,637	458,33
634,827	105,82
635,017	1533,89
635,208	552,47
635,398	378,21
635,588	-208,64
635,778	117,84
635,968	356,18
636,158	536,44
636,348	352,18
636,538	193,95
636,728	1047,18
636,918	336,15
637,108	598,53
637,298	69,77
637,488	618,56
637,678	979,09
637,868	51,74
638,057	181,93
638,247	670,64
638,437	886,95
638,627	127,85
638,817	137,87
639,007	380,22
639,197	680,65
639,386	-0,33
639,576	488,37
639,766	782,8
639,956	540,45
640,145	195,95
640,335	-106,49
640,525	626,57
640,715	562,48
640,904	854,91
641,094	530,44
641,284	514,41
641,473	730,73
641,663	-124,51
641,853	242,02
642,042	434,3
642,232	538,45
642,421	221,99
642,611	155,89
642,801	474,35
642,99	888,96
643,18	-342,83
643,369	103,82
643,559	432,29
643,748	412,26
643,938	-160,57
644,127	368,2
644,317	1075,23
644,506	296,1
644,695	49,74
644,885	107,82
645,074	376,21
645,264	774,79
645,453	131,86
645,642	-42,39
645,832	606,55
646,021	622,57
646,21	-30,38
646,4	-192,61
646,589	598,53
646,778	482,37
646,967	187,94
647,157	-100,48
647,346	706,69
647,535	804,83
647,724	125,85
647,913	109,83
648,103	458,33
648,292	902,98
648,481	-176,59
648,67	69,77
648,859	778,8
649,048	558,48
649,237	21,7
649,427	169,91
649,616	588,52
649,805	524,43
649,994	51,74
650,183	314,12
650,372	812,84
650,561	356,18
650,75	-194,62
650,939	-116,5
651,128	452,32
651,317	552,47
651,506	256,04
651,694	-94,47
651,883	356,18
652,072	908,98
652,261	-262,71
652,45	-208,64
652,639	578,51
652,828	426,28
653,016	-52,41
653,205	29,71
653,394	384,22
653,583	967,07
653,772	-302,77
653,96	-30,38
654,149	470,35
654,338	260,04
654,527	177,92
654,715	-116,5
654,904	390,23
655,093	388,23
655,281	79,78
655,47	-392,9
655,658	278,07
655,847	750,75
656,036	-210,64
656,224	-44,4
656,413	474,35
656,601	207,97
656,79	31,71
656,978	-176,59
657,167	530,44
657,355	352,18
657,544	-248,69
657,732	-192,61
657,921	480,36
658,109	592,53
658,298	33,72
658,486	-22,37
658,675	300,1
658,863	560,48
659,051	19,7
659,24	15,69
659,428	614,56
659,616	836,88
659,805	-166,57
659,993	-212,64
660,181	454,33
660,37	298,1
660,558	-74,44
660,746	-268,72
660,934	223,99
661,123	378,21
661,311	-184,6
661,499	211,97
661,687	398,24
661,875	862,92
662,064	49,74
662,252	-210,64
662,44	426,28
662,628	298,1
662,816	-517,08
663,004	-110,49
663,192	278,07
663,38	979,09
663,568	-44,4
663,756	-118,51
663,944	244,02
664,132	782,8
664,32	1003,12
664,508	-250,7
664,696	472,35
664,884	360,19
665,072	-352,84
665,26	-324,8
665,448	320,13
665,636	83,79
665,824	-192,61
666,012	-354,85
666,199	246,02
666,387	680,65
666,575	-114,5
666,763	45,73
666,951	634,59
667,139	504,4
667,326	-272,73
667,514	-292,76
667,702	654,62
667,889	694,67
668,077	-92,47
668,265	21,7
668,453	410,26
668,64	470,35
668,828	-212,64
669,016	-166,57
669,203	472,35
669,391	197,95
669,578	-30,38
669,766	-376,88
669,954	684,66
670,141	278,07
670,329	-216,65
670,516	-465,01
670,704	135,86
670,891	650,61
671,079	-114,5
671,266	-298,77
671,454	462,34
671,641	462,34
671,828	-94,47
672,016	-166,57
672,203	434,3
672,391	344,17
672,578	-340,83
672,765	-156,56
672,953	330,15
673,14	242,02
673,327	-204,63
673,515	-278,74
673,702	766,78
673,889	848,9
674,077	-164,57
674,264	-42,39
674,451	576,5
674,638	614,56
674,825	320,13
675,013	-386,89
675,2	406,26
675,387	490,38
675,574	-278,74
675,761	-60,42
675,948	258,04
676,136	264,05
676,323	-174,59
676,51	-290,75
676,697	446,31
676,884	608,55
677,071	-457
677,258	-412,93
677,445	490,38
677,632	296,1
677,819	-326,81
678,006	-228,66
678,193	554,47
678,38	312,12
678,567	-152,55
678,754	-396,91
678,94	366,2
679,127	712,7
679,314	-206,63
679,501	-304,78
679,688	191,94
679,875	107,82
680,062	-120,51
680,248	-314,79
680,435	374,21
680,622	512,41
680,809	-40,39
680,995	-94,47
681,182	704,69
681,369	350,17
681,556	-412,93
681,742	-400,91
681,929	612,55
682,116	706,69
682,302	-14,35
682,489	-258,71
682,675	414,27
682,862	836,88
683,049	-430,96
683,235	-106,49
683,422	380,22
683,608	963,06
683,795	-539,11
683,981	-274,73
684,168	878,94
684,354	270,06
684,541	868,93
684,727	109,83
684,914	262,05
685,1	374,21
685,287	-176,59
685,473	-212,64
685,659	472,35
685,846	370,2
686,032	-184,6
686,218	590,52
686,405	1005,12
686,591	776,79
686,777	-38,39
686,964	-174,59
687,15	284,08
687,336	550,46
687,522	-489,04
687,709	-473,02
687,895	394,24
688,081	672,64
688,267	-250,7
688,454	-206,63
688,64	354,18
688,826	274,06
689,012	-138,53
689,198	-142,54
689,384	378,21
689,57	1143,32
689,756	-440,97
689,942	346,17
690,128	588,52
690,314	1149,33
690,501	-122,51
690,687	61,76
690,873	786,81
691,058	774,79
691,244	-459
691,43	-92,47
691,616	270,06
691,802	542,45
691,988	-477,02
692,174	-270,73
692,36	274,06
692,546	356,18
692,732	99,81
692,917	368,2
693,103	528,43
693,289	973,08
693,475	-88,46
693,661	-172,58
693,846	394,24
694,032	566,49
694,218	-254,7
694,404	43,73
694,589	562,48
694,775	450,32
694,961	1279,52
695,146	3749,1
695,332	7003,82
695,518	9900,02
695,703	11428,23
695,889	13395,08
696,074	12698,07
696,26	9898,01
696,446	6797,52
696,631	5297,35
696,817	4560,28
697,002	3416,62
697,188	2144,78
697,373	824,86
697,559	1834,33
697,744	1253,48
697,93	83,79
698,115	-56,42
698,3	610,55
698,486	492,38
698,671	-368,87
698,857	-282,74
699,042	444,31
699,227	358,19
699,413	-252,7
699,598	-350,84
699,783	949,04
699,969	882,95
700,154	45,73
700,339	-340,83
700,524	660,62
700,71	742,74
700,895	-611,22
701,08	-134,53
701,265	622,57
701,45	662,63
701,636	13,69
701,821	59,75
702,006	438,3
702,191	468,35
702,376	-52,41
702,561	-122,51
702,746	636,59
702,931	830,87
703,116	-176,59
703,301	-320,8
703,486	632,58
703,671	183,93
703,856	-38,39
704,041	-204,63
704,226	544,46
704,411	610,55
704,596	7334,3
704,781	-264,72
704,966	722,71
705,151	1229,45
705,336	2176,82
705,521	4424,08
705,706	6324,84
705,89	7889,1
706,075	8095,4
706,26	7043,88
706,445	5856,16
706,63	4494,18
706,814	3186,29
706,999	2206,87
707,184	2180,83
707,368	1638,04
707,553	486,37
707,738	65,76
707,923	604,54
708,107	418,27
708,292	-160,57
708,476	402,25
708,661	704,69
708,846	480,36
709,03	-122,51
709,215	-58,42
709,399	786,81
709,584	784,8
709,768	-446,98
709,953	258,04
710,137	232
710,322	610,55
710,506	-134,53
710,691	-214,64
710,875	570,49
711,06	290,09
711,244	-220,65
711,429	-402,92
711,613	462,34
711,797	742,74
711,982	-12,35
712,166	-348,84
712,35	344,17
712,535	662,63
712,719	-216,65
712,903	-444,98
713,088	622,57
713,272	486,37
713,456	-88,46
713,64	762,77
713,824	1239,46
714,009	1391,68
714,193	914,99
714,377	502,39
714,561	1051,19
714,745	1043,18
714,929	7,68
715,113	143,88
715,298	854,91
715,482	488,37
715,666	-148,55
715,85	-346,84
716,034	965,07
716,218	332,15
716,402	-168,58
716,586	-324,8
716,77	828,87
716,954	678,65
717,138	33,72
717,322	-136,53
717,506	648,61
717,689	566,49
717,873	-418,94
718,057	-346,84
718,241	818,85
718,425	326,14
718,609	-434,96
718,793	-108,49
718,976	418,27
719,16	434,3
719,344	-416,94
719,528	-134,53
719,711	592,53
719,895	390,23
720,079	-270,73
720,263	-112,5
720,446	582,51
720,63	504,4
720,814	-264,72
720,997	398,24
721,181	258,04
721,364	652,61
721,548	-122,51
721,732	-479,03
721,915	236,01
722,099	418,27
722,282	-370,87
722,466	-166,57
722,649	584,51
722,833	586,52
723,016	-316,79
723,2	-252,7
723,383	638,59
723,567	346,17
723,75	-26,37
723,934	-50,41
724,117	290,09
724,3	604,54
724,484	-278,74
724,667	-230,67
724,85	556,47
725,034	179,93
725,217	-306,78
725,4	-360,86
725,584	256,04
725,767	582,51
725,95	632,58
726,133	1800,28
726,317	2226,89
726,5	3130,2
726,683	2405,15
726,866	2262,95
727,049	2409,16
727,232	1902,42
727,416	892,96
727,599	686,66
727,782	1095,25
727,965	648,61
728,148	-140,54
728,331	-306,78
728,514	326,14
728,697	458,33
728,88	-222,66
729,063	-436,97
729,246	684,66
729,429	574,5
729,612	-174,59
729,795	63,76
729,978	470,35
730,161	476,36
730,344	-80,45
730,526	-350,84
730,709	322,13
730,892	314,12
731,075	-38,39
731,258	-380,89
731,441	556,47
731,623	205,97
731,806	-98,48
731,989	-360,86
732,172	906,98
732,354	502,39
732,537	282,08
732,72	-304,78
732,903	342,16
733,085	448,32
733,268	-364,86
733,451	-130,52
733,633	420,28
733,816	518,42
733,998	-68,43
734,181	-46,4
734,364	925,01
734,546	238,01
734,729	-342,83
734,911	159,9
735,094	778,8
735,276	488,37
735,459	-238,68
735,641	43,73
735,824	604,54
736,006	822,86
736,188	139,87
736,371	25,7
736,553	502,39
736,736	874,93
736,918	2367,1
737,1	5271,31
737,283	8706,29
737,465	10208,46
737,647	11474,3
737,83	12938,42
738,012	12275,46
738,194	9377,26
738,376	7636,74
738,559	5950,29
738,741	5048,99
738,923	3380,57
739,105	1972,53
739,287	1133,31
739,469	1449,77
739,652	1253,48
739,834	308,11
740,016	19,7
740,198	588,52
740,38	574,5
740,562	-278,74
740,744	225,99
740,926	502,39
741,108	504,4
741,29	-278,74
741,472	129,85
741,654	1003,12
741,836	406,26
742,018	-276,73
742,2	137,87
742,382	484,37
742,564	596,53
742,746	-140,54
742,928	-16,36
743,109	105,82
743,291	370,2
743,473	-354,85
743,655	137,87
743,837	366,2
744,019	400,25
744,2	83,79
744,382	276,07
744,564	626,57
744,746	217,98
744,927	-192,61
745,109	-306,78
745,291	716,71
745,472	340,16
745,654	157,9
745,836	25,7
746,017	658,62
746,199	666,63
746,38	-242,69
746,562	-146,55
746,744	288,08
746,925	626,57
747,107	-2,34
747,288	-2,34
747,47	628,58
747,651	584,51
747,833	-226,66
748,014	63,76
748,195	400,25
748,377	626,57
748,558	-222,66
748,74	91,8
748,921	2160,8
749,102	4115,63
749,284	6050,44
749,465	7812,99
749,646	10917,49
749,828	12652,01
750,009	11458,28
750,19	10959,55
750,372	12774,18
750,553	13256,88
750,734	13052,59
750,915	12820,25
751,096	11051,69
751,278	7967,22
751,459	5822,11
751,64	4153,69
751,821	3875,28
752,002	2487,27
752,183	1519,87
752,364	718,71
752,546	770,78
752,727	1217,43
752,908	79,78
753,089	121,84
753,27	500,39
753,451	466,34
753,632	101,81
753,813	-374,88
753,994	576,5
754,175	498,39
754,356	240,01
754,536	-230,67
754,717	318,13
754,898	280,07
755,079	-218,65
755,26	-178,59
755,441	446,31
755,622	334,15
755,802	-394,91
755,983	-336,82
756,164	616,56
756,345	544,46
756,526	-322,8
756,706	-318,8
756,887	340,16
757,068	438,3
757,248	670,64
757,429	354,18
757,61	624,57
757,79	340,16
757,971	-74,44
758,152	-332,82
758,332	432,29
758,513	462,34
758,693	-292,76
758,874	-264,72
759,055	392,24
759,235	446,31
759,416	-44,4
759,596	5,67
759,777	300,1
759,957	468,35
760,137	-294,76
760,318	228
760,498	240,01
760,679	240,01
760,859	-200,62
761,039	33,72
761,22	574,5
761,4	658,62
761,581	334,15
761,761	1121,29
761,941	4015,49
762,121	13849,74
762,302	28508,99
762,482	37974,72
762,662	46601,22
762,842	55422,01
763,023	57647,23
763,203	48325,72
763,383	38521,51
763,563	32731,11
763,743	23437,64
763,923	16455,52
764,104	11558,42
764,284	7172,06
764,464	4462,14
764,644	2677,55
764,824	2288,98
765,004	2603,44
765,184	3763,12
765,364	5996,36
765,544	7929,16
765,724	9599,58
765,904	10052,24
766,084	9665,68
766,264	8165,5
766,444	6088,49
766,624	4810,64
766,804	3915,34
766,983	3224,34
767,163	1902,42
767,343	1489,83
767,523	554,47
767,703	1313,57
767,883	508,4
768,062	356,18
768,242	75,78
768,422	1273,51
768,602	2415,17
768,781	3022,05
768,961	4047,53
769,141	5770,03
769,32	6368,9
769,5	5425,53
769,68	4091,6
769,859	3865,27
770,039	3699,03
770,219	1680,1
770,398	1459,78
770,578	1439,75
770,757	1872,38
770,937	2581,41
771,116	6503,09
771,296	12694,07
771,475	16846,09
771,655	20245,01
771,834	22642,49
772,014	23265,39
772,193	17116,48
772,373	12435,69
772,552	10056,24
772,731	7504,55
772,911	5792,06
773,09	3242,37
773,269	1509,86
773,449	1321,58
773,628	734,73
773,807	-14,35
773,987	584,51
774,166	598,53
774,345	512,41
774,524	-86,46
774,704	-286,75
774,883	806,84
775,062	470,35
775,241	-186,6
775,42	-46,4
775,6	242,02
775,779	418,27
775,958	-158,56
776,137	-138,53
776,316	392,24
776,495	546,46
776,674	189,94
776,853	-186,6
777,032	558,48
777,211	105,82
777,39	39,72
777,569	-220,65
777,748	308,11
777,927	306,11
778,106	-62,42
778,285	-204,63
778,464	272,06
778,643	466,34
778,822	-14,35
779	-228,66
779,179	624,57
779,358	558,48
779,537	-102,48
779,716	97,81
779,894	338,16
780,073	656,62
780,252	-42,39
780,431	-106,49
780,609	600,54
780,788	406,26
780,967	-374,88
781,145	39,72
781,324	670,64
781,503	356,18
781,681	-491,05
781,86	-116,5
782,039	412,26
782,217	404,25
782,396	-314,79
782,574	-567,16
782,753	552,47
782,931	474,35
783,11	-68,43
783,288	-116,5
783,467	380,22
783,645	316,12
783,824	-256,71
784,002	-416,94
784,18	280,07
784,359	570,49
784,537	-354,85
784,716	157,9
784,894	203,96
785,072	324,14
785,251	320,13
785,429	-38,39
785,607	430,29
785,785	340,16
785,964	-160,57
786,142	-54,41
786,32	390,23
786,498	211,97
786,677	-244,69
786,855	-262,71
787,033	280,07
787,211	670,64
787,389	-304,78
787,567	87,79
787,745	306,11
787,923	187,94
788,102	-48,4
788,28	-296,76
788,458	354,18
788,636	330,15
788,814	-266,72
788,992	-44,4
789,17	101,81
789,348	236,01
789,526	-436,97
789,703	880,94
789,881	564,48
790,059	490,38
790,237	-352,84
790,415	-180,6
790,593	458,33
790,771	330,15
790,949	-16,36
791,126	-130,52
791,304	348,17
791,482	197,95
791,66	73,77
791,837	-60,42
792,015	145,88
792,193	290,09
792,371	-416,94
792,548	-282,74
792,726	264,05
792,904	552,47
793,081	129,85
793,259	682,66
793,436	2713,6
793,614	5477,61
793,792	7919,15
793,969	9180,98
794,147	12453,72
794,324	13228,84
794,502	11183,88
794,679	7041,87
794,857	5834,12
795,034	4179,73
795,212	2445,21
795,389	1109,27
795,567	1289,54
795,744	1259,49
795,921	764,78
796,099	15,69
796,276	1041,18
796,453	490,38
796,631	-312,79
796,808	7,68
796,985	270,06
797,163	348,17
797,34	125,85
797,517	9,68
797,694	296,1
797,872	586,52
798,049	-184,6
798,226	209,97
798,403	396,24
798,58	352,18
798,757	664,63
798,935	69,77
799,112	955,05
799,289	2070,67
799,466	3024,05
799,643	4470,15
799,82	6833,57
799,997	8536,04
800,174	10026,2
800,351	11560,42
800,528	12259,44
800,705	13337
800,882	13387,07
801,059	13168,76
801,236	10204,46
801,413	5932,27
801,589	4229,8
801,766	2535,34
801,943	2309,01
802,12	1221,44
802,297	868,93
802,474	526,43
802,651	1165,36
802,827	951,05
803,004	-178,59
803,181	79,78
803,358	854,91
803,534	634,59
803,711	262,05
803,888	244,02
804,064	1031,16
804,241	634,59
804,418	75,78
804,594	-290,75
804,771	404,25
804,947	288,08
805,124	-16,36
805,301	-248,69
805,477	536,44
805,654	792,82
805,83	153,89
806,007	266,05
806,183	594,53
806,36	392,24
806,536	191,94
806,712	105,82
806,889	314,12
807,065	804,83
807,242	276,07
807,418	141,87
807,594	720,71
807,771	450,32
807,947	1053,19
808,123	75,78
808,3	730,73
808,476	730,73
808,652	147,88
808,829	810,84
809,005	3717,05
809,181	7316,27
809,357	10146,37
809,533	13234,85
809,71	17310,76
809,886	18726,81
810,062	18776,89
810,238	20493,37
810,414	31375,15
810,59	37710,33
810,766	46989,78
810,942	49557,51
811,118	50520,9
811,294	39026,24
811,47	20964,06
811,646	15990,85
811,822	10274,56
811,998	7436,45
812,174	4832,67
812,35	3134,21
812,526	2990
812,702	2226,89
812,878	2254,94
813,054	1039,17
813,23	1812,29
813,405	1297,55
813,581	947,04
813,757	526,43
813,933	868,93
814,109	1585,97
814,284	209,97
814,46	139,87
814,636	973,08
814,812	780,8
814,987	230
815,163	292,09
815,339	1099,26
815,514	420,28
815,69	234,01
815,866	155,89
816,041	792,82
816,217	860,91
816,392	498,39
816,568	442,31
816,743	2180,83
816,919	5257,29
817,094	14266,35
817,27	24819,65
817,445	31986,03
817,621	35907,72
817,796	37896,6
817,972	37788,45
818,147	35264,79
818,322	44167,69
818,498	55265,78
818,673	58314,2
818,849	60593,5
819,024	60723,69
819,199	61136,29
819,375	37864,56
819,55	22878,83
819,725	14570,79
819,9	8784,4
820,076	6965,76
820,251	5427,53
820,426	3586,87
820,601	2805,73
820,776	2034,62
820,952	2531,34
821,127	2317,03
821,302	1031,16
821,477	1489,83
821,652	1131,31
821,827	2078,68
822,002	438,3
822,177	67,76
822,352	995,11
822,527	474,35
822,702	43,73
822,877	7,68
823,052	1037,17
823,227	352,18
823,402	79,78
823,577	-96,47
823,752	458,33
823,927	432,29
824,102	-248,69
824,277	143,88
824,451	320,13
824,626	386,23
824,801	151,89
824,976	384,22
825,151	2673,54
825,325	5235,26
825,5	6184,63
825,675	6841,58
825,85	9255,08
826,024	8520,02
826,199	5984,34
826,374	3016,04
826,548	2663,53
826,723	2094,7
826,897	1141,32
827,072	914,99
827,247	995,11
827,421	784,8
827,596	228
827,77	-20,36
827,945	440,3
828,119	1103,27
828,294	-42,39
828,468	75,78
828,643	832,87
828,817	452,32
828,992	2022,6
829,166	-326,81
829,34	402,25
829,515	382,22
829,689	-270,73
829,864	-136,53
830,038	298,1
830,212	199,96
830,386	7,68
830,561	-378,88
830,735	578,51
830,909	380,22
831,084	-477,02
831,258	294,09
831,432	590,52
831,606	300,1
831,78	-18,36
831,954	-416,94
832,129	610,55
832,303	292,09
832,477	-64,43
832,651	-142,54
832,825	908,98
832,999	246,02
833,173	-168,58
833,347	-86,46
833,521	386,23
833,695	240,01
833,869	-174,59
834,043	-376,88
834,217	268,06
834,391	111,83
834,565	510,41
834,739	-262,71
834,913	117,84
835,086	358,19
835,26	-64,43
835,434	-244,69
835,608	362,19
835,782	430,29
835,956	-116,5
836,129	-102,48
836,303	450,32
836,477	39,72
836,651	-232,67
836,824	-382,89
836,998	508,4
837,172	606,55
837,345	-300,77
837,519	-56,42
837,693	498,39
837,866	344,17
838,04	-134,53
838,213	338,16
838,387	338,16
838,56	414,27
838,734	-400,91
838,907	280,07
839,081	716,71
839,254	1011,13
839,428	2006,58
839,601	4065,56
839,775	6945,74
839,948	7859,06
840,122	8598,13
840,295	10096,3
840,468	9619,61
840,642	6539,15
840,815	3390,58
840,988	3558,83
841,162	6016,39
841,335	8465,94
841,508	9751,8
841,682	10713,2
841,855	13308,96
842,028	12946,43
842,201	10232,5
842,374	5880,19
842,548	4053,54
842,721	3210,32
842,894	1411,71
843,067	1499,84
843,24	1608
843,413	1241,47
843,586	608,55
843,759	414,27
843,932	782,8
844,105	620,57
844,278	248,03
844,451	818,85
844,624	370,2
844,797	352,18
844,97	-326,81
845,143	131,86
845,316	524,43
845,489	594,53
845,662	-254,7
845,835	-260,71
846,008	9,68
846,18	51,74
846,353	-360,86
846,526	256,04
846,699	326,14
846,872	179,93
847,044	-493,05
847,217	-617,23
847,39	350,17
847,563	320,13
847,735	-190,61
847,908	-430,96
848,081	558,48
848,253	284,08
848,426	-461
848,598	-254,7
848,771	632,58
848,944	201,96
849,116	-362,86
849,289	-262,71
849,461	139,87
849,634	816,85
849,806	-398,91
849,979	-619,23
850,151	99,81
850,324	219,99
850,496	-278,74
850,668	-40,39
850,841	1483,82
851,013	1636,04
851,186	1519,87
851,358	2012,58
851,53	2933,92
851,703	2859,81
851,875	2180,83
852,047	1269,51
852,219	4025,5
852,392	957,05
852,564	258,04
852,736	-278,74
852,908	596,53
853,081	556,47
853,253	-308,78
853,425	-436,97
853,597	634,59
853,769	432,29
853,941	-531,1
854,113	-374,88
854,285	542,45
854,457	406,26
854,63	-298,77
854,802	-246,69
854,974	276,07
855,146	630,58
855,318	-517,08
855,489	-98,48
855,661	185,94
855,833	133,86
856,005	7,68
856,177	-78,45
856,349	153,89
856,521	219,99
856,693	-410,93
856,865	-368,87
857,036	-48,4
857,208	366,2
857,38	-384,89
857,552	5,67
857,723	-14,35
857,895	159,9
858,067	-605,21
858,239	-549,13
858,41	412,26
858,582	502,39
858,754	-461
858,925	-338,82
859,097	230
859,268	-14,35
859,44	-388,9
859,612	-422,95
859,783	564,48
859,955	326,14
860,126	-531,1
860,298	-426,95
860,469	410,26
860,641	191,94
860,812	-448,98
860,983	-641,26
861,155	221,99
861,326	532,44
861,498	-322,8
861,669	-547,13
861,84	63,76
862,012	498,39
862,183	-402,92
862,354	-555,14
862,526	428,29
862,697	39,72
862,868	-465,01
863,039	-356,85
863,211	392,24
863,382	340,16
863,553	-398,91
863,724	-422,95
863,895	113,83
864,066	81,79
864,238	-264,72
864,409	-557,14
864,58	482,37
864,751	836,88
864,922	-306,78
865,093	-302,77
865,264	248,03
865,435	420,28
865,606	-467,01
865,777	-308,78
865,948	454,33
866,119	404,25
866,29	131,86
866,461	-160,57
866,632	935,02
866,802	658,62
866,973	-4,34
867,144	278,07
867,315	822,86
867,486	422,28
867,657	-469,01
867,827	-316,79
867,998	73,77
868,169	328,14
868,34	-300,77
868,51	434,3
868,681	296,1
868,852	482,37
869,022	-198,62
869,193	-118,51
869,364	364,19
869,534	556,47
869,705	-208,64
869,875	-440,97
870,046	83,79
870,217	221,99
870,387	-346,84
870,558	-210,64
870,728	240,01
870,899	113,83
871,069	-258,71
871,239	-539,11
871,41	81,79
871,58	254,03
871,751	-723,38
871,921	-238,68
872,091	388,23
872,262	862,92
872,432	-743,41
872,602	-479,03
872,773	49,74
872,943	133,86
873,113	-555,14
873,284	-108,49
873,454	872,93
873,624	626,57
873,794	-396,91
873,964	-150,55
874,135	246,02
874,305	476,36
874,475	-296,76
874,645	-459
874,815	268,06
874,985	584,51
875,155	-627,24
875,325	-563,15
875,495	400,25
875,665	1115,28
875,835	-94,47
876,005	-176,59
876,175	470,35
876,345	41,73
876,515	-535,11
876,685	-515,08
876,855	302,1
877,025	472,35
877,195	-753,43
877,365	-471,02
877,534	476,36
877,704	488,37
877,874	-643,27
878,044	67,76
878,214	382,22
878,383	55,75
878,553	-605,21
878,723	-114,5
878,892	300,1
879,062	250,03
879,232	-346,84
879,401	-34,38
879,571	552,47
879,741	652,61
879,91	5,67
880,08	-26,37
880,249	370,2
880,419	406,26
880,589	-324,8
880,758	-162,57
880,928	236,01
881,097	406,26
881,267	-677,32
881,436	-234,67
881,605	254,03
881,775	254,03
881,944	-717,37
882,114	-136,53
882,283	15,69
882,452	556,47
882,622	-170,58
882,791	-651,28
882,96	514,41
883,13	704,69
883,299	-561,15
883,468	-461
883,637	320,13
883,807	700,68
883,976	-515,08
884,145	-605,21
884,314	119,84
884,483	322,13
884,652	-412,93
884,822	-701,35
884,991	330,15
885,16	159,9
885,329	-350,84
885,498	-667,3
885,667	272,06
885,836	167,91
886,005	-122,51
886,174	79,78
886,343	139,87
886,512	250,03
886,681	-434,96
886,85	-340,83
887,019	326,14
887,187	550,46
887,356	-154,56
887,525	628,58
887,694	256,04
887,863	364,19
888,032	-573,16
888,2	-214,64
888,369	344,17
888,538	562,48
888,707	-374,88
888,875	-473,02
889,044	474,35
889,213	197,95
889,381	-503,06
889,55	-448,98
889,719	468,35
889,887	412,26
890,056	-428,96
890,224	-392,9
890,393	804,83
890,562	91,8
890,73	-222,66
890,899	-525,09
891,067	452,32
891,236	596,53
891,404	-340,83
891,573	-398,91
891,741	402,25
891,909	380,22
892,078	-446,98
892,246	5,67
892,415	953,05
892,583	738,74
892,751	-709,36
892,92	-332,82
893,088	250,03
893,256	308,11
893,424	-228,66
893,593	314,12
893,761	223,99
893,929	694,67
894,097	-599,2
894,265	-384,89
894,434	426,28
894,602	554,47
894,77	-272,73
894,938	-420,94
895,106	566,49
895,274	232
895,442	-527,1
895,61	-617,23
895,778	358,19
895,946	592,53
896,114	-160,57
896,282	-330,81
896,45	378,21
896,618	324,14
896,786	-182,6
896,954	-589,19
897,122	963,06
897,29	993,11
897,458	-551,13
897,625	-601,2
897,793	288,08
897,961	404,25
898,129	-196,62
898,297	-659,29
898,464	219,99
898,632	484,37
898,8	-469,01
898,968	-699,35
899,135	272,06
899,303	296,1
899,471	-216,65
899,638	-268,72
899,806	9,68
899,973	296,1
900,141	-701,35
900,309	-463
900,476	438,3
900,644	129,85
900,811	-54,41
900,979	-452,99
901,146	213,98
901,314	454,33
901,481	-420,94
901,649	-477,02
901,816	187,94
901,983	266,05
902,151	-330,81
