Data from Subt4__27__15-11-16-507.txt Node

Date: Thu Feb 19 15:11:16 CET 2026
User: Versuch 234
Spectrometer: USB4F05580
Trigger mode: 4
Integration Time (sec): 9,000000E-1
Scans to average: 20
Electric dark correction enabled: true
Nonlinearity correction enabled: false
Boxcar width: 0
XAxis mode: Wavelengths
Number of Pixels in Spectrum: 3648
>>>>>Begin Spectral Data<<<<<
197,409	-706,37
197,623	-706,37
197,837	-706,37
198,051	-643,37
198,265	-685,44
198,479	581,7
198,693	429,38
198,907	-380,79
199,122	-385,8
199,336	425,27
199,55	371,5
199,763	-457
199,977	-114,01
200,191	220,08
200,405	334,64
200,619	-507,18
200,833	-517,79
201,047	427,78
201,261	306
201,475	-472,93
201,689	-420,65
201,903	574,19
202,117	968,46
202,331	-441,08
202,545	-415,24
202,758	612,25
202,972	719,8
203,186	-21,67
203,4	-176,1
203,614	608,84
203,828	455,42
204,041	-419,95
204,255	-288,56
204,469	509,8
204,683	561,17
204,897	-482,24
205,11	-401,72
205,324	472,94
205,538	1028,65
205,752	-386,2
205,965	-450,29
206,179	490,87
206,393	640,59
206,606	-240,29
206,82	-382,1
207,034	640,69
207,248	513
207,461	-440,38
207,675	-518,19
207,889	591,82
208,102	591,72
208,316	-294,87
208,529	-473,93
208,743	451,11
208,957	522,22
209,17	-363,97
209,384	-305,08
209,597	308,31
209,811	618,15
210,025	-122,02
210,238	-374,28
210,452	524,32
210,665	621,16
210,879	-359,36
211,092	-555,75
211,306	678,14
211,519	336,75
211,733	-414,44
211,946	-399,92
212,16	176,51
212,373	425,48
212,587	-211,75
212,8	-448,49
213,014	279,76
213,227	582,8
213,44	-369,38
213,654	-424,86
213,867	399,64
214,081	327,73
214,294	-507,28
214,507	-376,39
214,721	357,28
214,934	374,6
215,148	-382
215,361	-426,46
215,574	496,98
215,788	688,76
216,001	-377,19
216,214	-500,77
216,428	465,13
216,641	360,18
216,854	-430,67
217,067	-508,98
217,281	583,9
217,494	601,93
217,707	-413,34
217,92	-362,97
218,134	352,47
218,347	466,84
218,56	-276,84
218,773	-597,21
218,986	586,61
219,2	418,97
219,413	-524,5
219,626	-384,5
219,839	414,56
220,052	337,85
220,265	-518,59
220,479	-246,7
220,692	624,06
220,905	337,75
221,118	-71,55
221,331	-433,57
221,544	750,15
221,757	613,95
221,97	-237,49
222,183	-379,29
222,396	382,11
222,609	968,66
222,822	-51,52
223,035	-93,38
223,249	432,69
223,462	614,15
223,675	-544,13
223,887	-478,84
224,1	579,6
224,313	411,96
224,526	-503,07
224,739	-571,67
224,952	509,5
225,165	520,41
225,378	-245,2
225,591	-124,42
225,804	831,16
226,017	482,16
226,23	51,93
226,443	-378,79
226,656	524,82
226,868	422,67
227,081	-338,23
227,294	-376,99
227,507	497,08
227,72	697,07
227,933	-434,77
228,145	-405,03
228,358	536,04
228,571	286,57
228,784	-518,99
228,997	-423,05
229,209	337,95
229,422	679,34
229,635	-516,69
229,848	-317,6
230,06	608,64
230,273	499,08
230,486	-365,17
230,698	-306,39
230,911	264,84
231,124	533,93
231,336	-374,48
231,549	-221,36
231,762	523,72
231,974	264,84
232,187	-457,71
232,4	-432,77
232,612	403,74
232,825	225,99
233,038	-474,63
233,25	-122,82
233,463	571,59
233,675	466,33
233,888	-290,96
234,1	-444,49
234,313	476,75
234,526	297,39
234,738	-478,74
234,951	-394,61
235,163	527,82
235,376	656,41
235,588	-326,51
235,801	-388,1
236,013	687,96
236,226	459,22
236,438	-14,16
236,65	-184,31
236,863	456,12
237,075	271,35
237,288	-548,74
237,5	-487,85
237,713	503,39
237,925	709,69
238,137	-329,42
238,35	-346,74
238,562	461,73
238,774	528,22
238,987	-305,58
239,199	-442,08
239,411	485,06
239,624	176,51
239,836	-273,24
240,048	-444,99
240,261	347,36
240,473	884,24
240,685	-452,5
240,897	-365,27
241,11	529,93
241,322	619,06
241,534	-349,75
241,746	-411,24
241,959	136,56
242,171	700,37
242,383	-307,99
242,595	-420,45
242,807	465,33
243,02	490,67
243,232	-336,13
243,444	-335,83
243,656	209,06
243,868	592,72
244,08	-429,56
244,293	-511,48
244,505	959,95
244,717	490,87
244,929	-552,74
245,141	-390,91
245,353	756,05
245,565	314,81
245,777	-363,17
245,989	-296,67
246,201	683,05
246,413	322,93
246,625	-298,98
246,837	-386,4
247,049	532,83
247,261	460,23
247,473	-287,36
247,685	-217,86
247,897	401,84
248,109	613,35
248,321	-447,99
248,533	-541,73
248,745	581,3
248,957	880,23
249,169	-420,15
249,381	-351,35
249,593	737,73
249,804	791,61
250,016	-432,07
250,228	-518,89
250,44	342,86
250,652	341,55
250,864	-535,82
251,075	-146,35
251,287	746,84
251,499	472,74
251,711	-452,1
251,923	-375,99
252,134	742,94
252,346	392,13
252,558	-322,41
252,77	-221,86
252,982	661,82
253,193	486,66
253,405	-332,72
253,617	-81,46
253,828	476,15
254,04	405,15
254,252	-305,38
254,463	-273,34
254,675	444,8
254,887	431,38
255,098	-362,77
255,31	-557,25
255,522	396,33
255,733	629,47
255,945	-311,59
256,157	-507,48
256,368	467,14
256,58	502,09
256,791	-511,88
257,003	-274,44
257,214	459,82
257,426	461,03
257,637	-490,05
257,849	-574,77
258,061	707,78
258,272	546,15
258,484	-437,28
258,695	-176,5
258,907	558,07
259,118	327,23
259,329	-497,66
259,541	-389,11
259,752	475,65
259,964	689,56
260,175	-417,35
260,387	-481,74
260,598	674,34
260,809	251,62
261,021	-169,59
261,232	-412,34
261,444	549,86
261,655	480,45
261,866	-420,65
262,078	-374,28
262,289	709,69
262,5	300,89
262,712	-322,31
262,923	-275,14
263,134	498,68
263,345	660,82
263,557	-500,27
263,768	-461,31
263,979	404,34
264,191	484,16
264,402	-420,15
264,613	-436,77
264,824	589,41
265,035	299,79
265,247	-358,66
265,458	-287,36
265,669	411,25
265,88	518,31
266,091	-137,64
266,302	-454,5
266,514	527,72
266,725	572,39
266,936	-424,16
267,147	-216,46
267,358	508,9
267,569	185,13
267,78	-307,89
267,991	-402,73
268,202	678,74
268,414	612,45
268,625	-471,83
268,836	-521,5
269,047	457,92
269,258	436,89
269,469	-559,35
269,68	-180,9
269,891	459,82
270,102	626,57
270,313	-392,21
270,524	-393,31
270,735	438,99
270,945	473,64
271,156	-246,9
271,367	-276,44
271,578	423,77
271,789	343,56
272	-406,33
272,211	-383,8
272,422	337,85
272,633	473,95
272,844	-374,89
273,054	-367,98
273,265	362,18
273,476	579,9
273,687	-529,91
273,898	-535,12
274,109	293,18
274,319	489,07
274,53	-105,29
274,741	-440,08
274,952	449,41
275,162	465,73
275,373	-309,29
275,584	-507,08
275,795	531,13
276,005	438,29
276,216	-214,25
276,427	-456,6
276,637	261,14
276,848	257,43
277,059	-527,41
277,269	-232,18
277,48	495,78
277,691	309,81
277,901	-199,83
278,112	-357,66
278,323	428,18
278,533	221,28
278,744	-287,96
278,954	-446,09
279,165	508,09
279,376	502,09
279,586	-254,91
279,797	-462,81
280,007	345,16
280,218	299,69
280,428	-442,58
280,639	-265,83
280,849	645,29
281,06	513,4
281,27	-261,12
281,481	-429,16
281,691	648
281,902	381,11
282,112	-137,04
282,322	-184,91
282,533	554,56
282,743	446,21
282,954	-238,99
283,164	-384,4
283,374	375
283,585	429,88
283,795	-264,93
284,006	-351,45
284,216	272,05
284,426	590,61
284,637	-405,33
284,847	-426,36
285,057	435,69
285,268	741,53
285,478	-474,43
285,688	-288,66
285,898	530,83
286,109	427,38
286,319	-192,62
286,529	-141,75
286,739	321,52
286,95	287,37
287,16	-348,55
287,37	18,89
287,58	497,28
287,79	444,7
288,001	-266,33
288,211	-462,51
288,421	360,98
288,631	421,47
288,841	-349,85
289,051	-391,31
289,261	234,9
289,471	637,18
289,682	-325,41
289,892	-163,28
290,102	441,4
290,312	392,73
290,522	-299,58
290,732	-182,01
290,942	454,72
291,152	716,1
291,362	-138,04
291,572	-145,55
291,782	591,62
291,992	354,77
292,202	-269,83
292,412	220,48
292,622	288,38
292,832	379,41
293,042	-262,22
293,252	-407,13
293,462	283,67
293,672	223,68
293,881	-171,69
294,091	-284,65
294,301	378,31
294,511	274,36
294,721	-208,24
294,931	-139,04
295,141	276,76
295,35	278,76
295,56	118,53
295,77	-169,59
295,98	423,37
296,19	100,6
296,4	-193,52
296,609	-205,54
296,819	558,77
297,029	248,12
297,239	-143,75
297,448	-237,79
297,658	73,16
297,868	296,49
298,077	-112,5
298,287	30,1
298,497	623,76
298,706	224,28
298,916	-262,32
299,126	-314
299,335	159,89
299,545	677,24
299,755	-99,39
299,964	-262,22
300,174	198,65
300,384	205,96
300,593	-215,05
300,803	-252,01
301,012	521,91
301,222	82,78
301,431	-269,63
301,641	-164,08
301,851	282,07
302,06	249,52
302,27	-177,5
302,479	-227,87
302,689	173,91
302,898	340,55
303,107	-225,77
303,317	-209,04
303,526	557,87
303,736	272,25
303,945	98,1
304,155	-297,77
304,364	260,54
304,574	381,41
304,783	-295,07
304,992	-222,36
305,202	544,65
305,411	288,88
305,62	-346,54
305,83	-182,81
306,039	1149,52
306,248	236,5
306,458	-268,13
306,667	-293,87
306,876	115,23
307,086	521,71
307,295	5,67
307,504	-255,31
307,713	193,04
307,923	102,11
308,132	-222,86
308,341	-159,47
308,55	291,38
308,76	502,69
308,969	-59,83
309,178	-291,76
309,387	406,35
309,596	152,68
309,805	-12,16
310,015	-163,58
310,224	695,57
310,433	238,9
310,642	-260,92
310,851	-274,14
311,06	429,78
311,269	206,06
311,478	-330,12
311,687	-392,71
311,896	109,32
312,106	261,94
312,315	-57,83
312,524	-193,82
312,733	66,76
312,942	210,96
313,151	-247,3
313,36	-314,2
313,569	331,04
313,778	270,55
313,987	-319,6
314,195	-164,88
314,404	702,48
314,613	302,5
314,822	-181,4
315,031	-260,12
315,24	135,15
315,449	363,59
315,658	-321,91
315,867	-238,29
316,076	479,65
316,284	377,51
316,493	-217,76
316,702	-182,11
316,911	163,4
317,12	369,39
317,329	-245,5
317,537	-244,1
317,746	185,23
317,955	247,62
318,164	-151,36
318,372	-258,42
318,581	118,43
318,79	340,55
318,999	-103,09
319,207	-191,42
319,416	397,43
319,625	172,31
319,833	-333,12
320,042	-238,69
320,251	315,62
320,459	217,97
320,668	-119,51
320,877	-227,17
321,085	262,04
321,294	361,68
321,502	-297,37
321,711	-301,88
321,92	320,92
322,128	477,25
322,337	-309,99
322,545	-132,63
322,754	416,46
322,962	-13,06
323,171	-289,26
323,379	-282,65
323,588	357,58
323,796	498,68
324,005	-239,79
324,213	-333,93
324,422	233,5
324,63	198,15
324,839	204,86
325,047	-203,24
325,256	271,45
325,464	518,41
325,672	-15,86
325,881	-188,41
326,089	238,7
326,297	262,74
326,506	-83,46
326,714	-128,23
326,923	287,68
327,131	323,13
327,339	-236,18
327,548	-164,28
327,756	454,22
327,964	453,42
328,172	-48,41
328,381	-187,51
328,589	603,73
328,797	573,49
329,005	-216,46
329,214	-329,52
329,422	305,4
329,63	358,98
329,838	-251,41
330,046	-292,17
330,255	404,14
330,463	349,16
330,671	-386,4
330,879	24,79
331,087	431,48
331,295	355,27
331,503	-159,27
331,712	-364,97
331,92	195,44
332,128	157,49
332,336	-59,53
332,544	-130,83
332,752	389,62
332,96	235,4
333,168	-330,42
333,376	-239,49
333,584	353,87
333,792	252,32
334	-145,05
334,208	-185,81
334,416	284,47
334,624	111,72
334,832	-158,27
335,04	-330,42
335,248	456,02
335,456	381,01
335,664	-237,09
335,872	-159,87
336,08	312,61
336,287	499,88
336,495	-160,47
336,703	-206,44
336,911	148,67
337,119	179,12
337,327	-228,37
337,535	-118,31
337,742	574,19
337,95	231,79
338,158	-29,99
338,366	-340,23
338,573	507,69
338,781	176,41
338,989	-117,91
339,197	-297,27
339,404	674,24
339,612	298,29
339,82	-186,31
340,028	-234,18
340,235	542,64
340,443	154,08
340,651	-292,47
340,858	-408,83
341,066	388,32
341,274	558,37
341,481	-196,23
341,689	-330,22
341,896	188,73
342,104	299,09
342,312	-230,48
342,519	-292,37
342,727	249,12
342,934	170,1
343,142	-301,98
343,349	-164,28
343,557	145,87
343,765	154,28
343,972	4,97
344,18	-162,68
344,387	192,84
344,594	409,15
344,802	-155,87
345,009	-334,73
345,217	353,27
345,424	63,45
345,632	10,37
345,839	-239,59
346,047	356,78
346,254	313,31
346,461	-188,31
346,669	-180,1
346,876	304,5
347,083	456,62
347,291	-272,14
347,498	-58,73
347,705	217,67
347,913	308,91
348,12	-284,85
348,327	-135,84
348,535	351,07
348,742	427,18
348,949	-208,14
349,156	-68,64
349,364	220,48
349,571	188,03
349,778	-87,67
349,985	-339,03
350,192	455,12
350,4	158,39
350,607	-298,57
350,814	-237,79
351,021	235,4
351,228	254,93
351,435	-180,4
351,643	-149,86
351,85	375,8
352,057	247,32
352,264	-278,04
352,471	-236,38
352,678	353,37
352,885	102,31
353,092	-1,54
353,299	-267,43
353,506	167
353,713	368,69
353,92	-239,49
354,127	11,27
354,334	607,14
354,541	336,05
354,748	-222,16
354,955	-295,87
355,162	34,91
355,369	64,85
355,576	-68,74
355,783	-163,78
355,99	302,1
356,197	73,67
356,404	-304,78
356,611	-231,18
356,817	530,93
357,024	291,88
357,231	-167,48
357,438	-280,65
357,645	290,58
357,852	249,82
358,058	-194,82
358,265	-202,64
358,472	326,93
358,679	418,16
358,885	-115,11
359,092	-301,38
359,299	457,02
359,506	545,95
359,712	-131,13
359,919	-267,73
360,126	378,21
360,333	144,67
360,539	-244
360,746	-185,91
360,953	558,37
361,159	447,11
361,366	-293,07
361,572	13,48
361,779	328,53
361,986	440,3
362,192	-269,93
362,399	-194,32
362,605	739,33
362,812	161,29
363,019	95,1
363,225	-106,8
363,432	534,73
363,638	386,12
363,845	-183,31
364,051	-302,98
364,258	331,74
364,464	283,67
364,671	15,28
364,877	-327,02
365,084	420,77
365,29	387,82
365,496	-129,53
365,703	-316
365,909	408,45
366,116	338,75
366,322	-159,77
366,528	-288,96
366,735	304,8
366,941	304
367,147	-104,59
367,354	2,46
367,56	516,41
367,766	397,03
367,973	-146,95
368,179	-178
368,385	573,29
368,592	292,58
368,798	-61,83
369,004	-295,37
369,21	249,12
369,417	306,5
369,623	-322,51
369,829	69,66
370,035	323,13
370,241	274,96
370,448	-303,68
370,654	-306,79
370,86	357,78
371,066	200,35
371,272	-121,62
371,478	-290,56
371,684	1676,49
371,891	233,6
372,097	-283,15
372,303	-266,63
372,509	340,15
372,715	382,71
372,921	-338,23
373,127	-169,29
373,333	310,11
373,539	283,07
373,745	-174,9
373,951	-345,34
374,157	293,18
374,363	325,43
374,569	-49,71
374,775	43,52
374,981	615,55
375,187	235,8
375,393	-207,54
375,599	-223,27
375,804	398,54
376,01	162,49
376,216	-274,84
376,422	-254,71
376,628	491,17
376,834	244,11
377,04	2,66
377,246	-101,39
377,451	564,78
377,657	237,8
377,863	-149,36
378,069	-127,23
378,274	417,66
378,48	302,5
378,686	-212,25
378,892	-224,47
379,097	619,66
379,303	471,64
379,509	-372,68
379,715	339,65
379,92	624,26
380,126	332,34
380,332	16,08
380,537	32,71
380,743	323,43
380,949	506,59
381,154	-321,51
381,36	-202,03
381,565	204,05
381,771	101,21
381,977	-354,66
382,182	-214,55
382,388	283,97
382,593	437,99
382,799	-89,67
383,004	-390,31
383,21	240,01
383,415	200,55
383,621	8,87
383,826	-170,49
384,032	271,15
384,237	616,45
384,443	-345,14
384,648	-309,29
384,854	665,32
385,059	574,99
385,265	-84,06
385,47	-86,47
385,675	603,03
385,881	524,42
386,086	-266,03
386,291	-395,72
386,497	608,54
386,702	-93,38
386,907	-160,47
387,113	-183,41
387,318	433,29
387,523	514,7
387,729	-286,36
387,934	-342,54
388,139	244,61
388,344	205,96
388,55	-198,13
388,755	-171,39
388,96	287,07
389,165	424,27
389,371	-163,78
389,576	-214,65
389,781	-27,68
389,986	436,79
390,191	-126,63
390,396	-340,54
390,601	303,7
390,807	354,57
391,012	-176,4
391,217	-174,29
391,422	368,09
391,627	366,79
391,832	-237,19
392,037	-145,45
392,242	388,22
392,447	633,98
392,652	-402,22
392,857	-286,16
393,062	422,57
393,267	380,31
393,472	-237,29
393,677	-138,84
393,882	356,48
394,087	128,85
394,292	-136,44
394,497	-142,55
394,702	348,66
394,907	214,97
395,112	52,83
395,317	-252,11
395,521	527,72
395,726	337,55
395,931	-47,11
396,136	-314,1
396,341	759,06
396,546	-22,67
396,75	-203,14
396,955	45,92
397,16	509,3
397,365	427,48
397,57	69,66
397,774	-222,06
397,979	431,68
398,184	457,82
398,389	-282,55
398,593	-228,87
398,798	570,79
399,003	281,07
399,207	-136,54
399,412	-88,47
399,617	265,54
399,821	475,75
400,026	-54,72
400,231	31,7
400,435	287,48
400,64	460,63
400,844	-138,54
401,049	-61,73
401,254	669,03
401,458	400,74
401,663	74,27
401,867	52,33
402,072	371,5
402,276	570,39
402,481	-50,31
402,685	-251,81
402,89	489,37
403,094	511
403,299	-171,39
403,503	-212,45
403,708	824,85
403,912	479,35
404,116	-46,11
404,321	-77,65
404,525	567,78
404,73	633,78
404,934	-126,83
405,138	-7,35
405,343	610,64
405,547	612,65
405,751	56,14
405,956	-32,79
406,16	680,54
406,364	794,51
406,569	115,13
406,773	-265,63
406,977	761,06
407,181	757,76
407,386	-42
407,59	81,78
407,794	815,04
407,998	323,13
408,202	-74,75
408,407	-119,51
408,611	555,16
408,815	304,7
409,019	-52,22
409,223	-45,61
409,427	728,31
409,632	613,45
409,836	-1,24
410,04	162,59
410,244	755,85
410,448	522,22
410,652	234
410,856	-82,76
411,06	708,59
411,264	816,34
411,468	130,45
411,672	98,9
411,876	591,82
412,08	769,07
412,284	236,2
412,488	57,54
412,692	1011,62
412,896	922,5
413,1	184,23
413,304	174,61
413,508	1189,78
413,712	853,9
413,916	267,45
414,12	329,74
414,323	854
414,527	715,4
414,731	674,04
414,935	313,01
415,139	974,47
415,343	844,38
415,546	447,31
415,75	435,09
415,954	905,67
416,158	1279,61
416,361	410,25
416,565	445,3
416,769	1226,34
416,973	1252,37
417,176	813,44
417,38	796,71
417,584	1460,98
417,788	1398,19
417,991	766,87
418,195	679,14
418,398	1452,46
418,602	1530,98
418,806	651,1
419,009	755,75
419,213	1547,7
419,417	1663,27
419,62	1039,57
419,824	859,8
420,027	1585,76
420,231	1610,09
420,434	1110,87
420,638	1063,2
420,841	1649,35
421,045	1768,12
421,248	1126,89
421,452	1230,04
421,655	2064,35
421,859	2017,68
422,062	1252,17
422,266	1435,64
422,469	2173,51
422,673	2014,28
422,876	1524,37
423,079	1387,17
423,283	2253,53
423,486	2357,58
423,689	1789,45
423,893	1784,75
424,096	2317,42
424,299	2457,72
424,503	1942,17
424,706	1752,1
424,909	2101,4
425,113	2566,68
425,316	1933,86
425,519	2153,18
425,722	2730,32
425,926	2605,13
426,129	2058,44
426,332	2374,2
426,535	2975,27
426,739	2912,38
426,942	2469,84
427,145	2417,56
427,348	3248,97
427,551	2966,16
427,754	2577,9
427,957	2620,16
428,161	3134,2
428,364	3418,71
428,567	2930,51
428,77	2808,03
428,973	3672,48
429,176	3803,37
429,379	3166,35
429,582	2941,02
429,785	3631,62
429,988	3930,66
430,191	3342,7
430,394	3259,18
430,597	3891,1
430,8	3708,73
431,003	3809,98
431,206	3288,02
431,409	4248,82
431,612	4208,36
431,815	3877,88
432,018	4125,34
432,221	4568,98
432,423	4674,63
432,626	4385,01
432,829	4182,92
433,032	4938,82
433,235	5268,6
433,438	4605,83
433,64	4590,21
433,843	5279,41
434,046	5165,45
434,249	4399,84
434,452	4752,25
434,654	5696,62
434,857	5610,69
435,06	4955,94
435,263	5135,4
435,465	5858,25
435,668	6111,92
435,871	5438,84
436,073	5323,88
436,276	6244,61
436,479	6354,07
436,681	5729,26
436,884	5654,76
437,087	6333,74
437,289	6431,18
437,492	6322,42
437,694	6036,21
437,897	6671,63
438,1	6603,93
438,302	6195,94
438,505	6275,05
438,707	7126,59
438,91	7098,35
439,112	6379,71
439,315	6398,63
439,517	7441,55
439,72	7414,21
439,922	6861,1
440,125	6923,59
440,327	7436,14
440,529	7671,08
440,732	7524,07
440,934	7189,68
441,137	8072,46
441,339	8299,69
441,541	7738,98
441,744	7662,37
441,946	8356,87
442,148	8382,11
442,351	8112,12
442,553	7744,89
442,755	8772,78
442,958	8591,91
443,16	8378,7
443,362	8139,56
443,565	8941,72
443,767	9100,25
443,969	8701,87
444,171	8423,77
444,373	9324,07
444,576	9740,88
444,778	9073,01
444,98	8874,92
445,182	9829,31
445,384	9802,27
445,586	9692,01
445,789	9377,45
445,991	10165,49
446,193	10451,31
446,395	9798,46
446,597	9779,03
446,799	10443,8
447,001	11041,66
447,203	10380,61
447,405	10129,84
447,607	10850,39
447,809	11092,24
448,011	10627,26
448,213	10767,87
448,415	11576,34
448,617	11180,77
448,819	11100,95
449,021	10502,78
449,223	12222,68
449,425	11753,5
449,627	11658,76
449,829	10976,77
450,031	12598,82
450,233	11918,03
450,435	11684,4
450,636	11579,34
450,838	12257,23
451,04	12476,04
451,242	11564,92
451,444	11683,9
451,646	12480,15
451,847	12656,51
452,049	11874,87
452,251	12408,65
452,453	13186,47
452,654	12923,09
452,856	12392,82
453,058	13297,63
453,26	13322,97
453,461	13276,8
453,663	12735,32
453,865	13421,21
454,066	14491,06
454,268	13523,56
454,47	12876,72
454,671	12966,05
454,873	13638,83
455,074	13123,58
455,276	13245,46
455,478	12569,28
455,679	13463,88
455,881	13925,24
456,082	13127,39
456,284	12967,96
456,485	13845,13
456,687	13736,27
456,888	13882,08
457,09	12986,78
457,291	13592,56
457,493	13786,04
457,694	13251,87
457,896	13047,67
458,097	13615,4
458,299	13633,32
458,5	12954,84
458,701	12659,21
458,903	14146,97
459,104	13824,1
459,306	12917,98
459,507	12915,48
459,708	13657,46
459,91	13206,7
460,111	13108,46
460,312	13343
460,514	13230,74
460,715	13287,22
460,916	13290,52
461,117	12560,17
461,319	13164,54
461,52	13464,88
461,721	12546,75
461,922	12309,4
462,124	12616,25
462,325	13305,05
462,526	12230,59
462,727	11835,52
462,928	12780,79
463,129	12064,85
463,331	12211,26
463,532	11493,92
463,733	12600,92
463,934	12133,95
464,135	12005,66
464,336	10837,57
464,537	12638,88
464,738	11895,6
464,939	11198,59
465,14	11295,93
465,341	12468,73
465,542	11582,35
465,743	11170,35
465,944	10810,23
466,145	11605,78
466,346	11892,7
466,547	10690,86
466,748	10451,81
466,949	11330,68
467,15	11277,31
467,351	10293,78
467,552	10975,87
467,753	10937,21
467,953	11342,6
468,154	10278,76
468,355	9861,85
468,556	10831,96
468,757	11150,32
468,958	10368,39
469,158	9832,01
469,359	10459,62
469,56	10387,32
469,761	9531,78
469,962	10237,8
470,162	10640,88
470,363	10417,56
470,564	9996,85
470,764	9722,45
470,965	10302,29
471,166	9958,09
471,366	10030,3
471,567	10561,07
471,768	10409,35
471,968	9855,24
472,169	9229,04
472,37	9073,11
472,57	9684
472,771	9845,23
472,971	9663,47
473,172	9260,98
473,373	9878,98
473,573	9708,43
473,774	9133,5
473,974	9441,65
474,175	10489,26
474,375	9822
474,576	9139,11
474,776	9110,57
474,977	9820,29
475,177	9330,48
475,377	8954,54
475,578	8864,21
475,778	9559,12
475,979	8890,55
476,179	9289,52
476,379	8984,08
476,58	9325,58
476,78	9135,6
476,981	8585,5
477,181	8600,33
477,381	9167,75
477,582	9351,31
477,782	8711,79
477,982	8405,74
478,182	9286,22
478,383	8676,54
478,583	8928,9
478,783	8397,03
478,983	9385,06
479,184	9246,76
479,384	8607,64
479,584	8434,59
479,784	8643,19
479,984	8761,06
480,184	8134,45
480,385	8150,17
480,585	9083,53
480,785	8593,01
480,985	8232,89
481,185	8109,61
481,385	8746,54
481,585	8371,69
481,785	8269,55
481,985	8223,88
482,185	9047,07
482,385	8585,3
482,585	7882,18
482,785	8172,2
482,985	8542,04
483,185	8542,04
483,385	7891,7
483,585	7975,52
483,785	8339,05
483,985	8235,8
484,185	7857,35
484,385	7713,14
484,585	8473,34
484,785	8213,66
484,985	7864,46
485,185	7761,11
485,384	8681,24
485,584	8232,29
485,784	7711,94
485,984	7664,97
486,184	8372,29
486,383	7993,95
486,583	8022,49
486,783	7508,44
486,983	8131,65
487,183	8267,74
487,382	7686,1
487,582	7445,45
487,782	8162,19
487,981	7913,63
488,181	7400,19
488,381	7323,77
488,58	8132,95
488,78	7874,77
488,98	7438,24
489,179	7248,97
489,379	8229,39
489,579	7967,81
489,778	7698,32
489,978	7585,55
490,177	8041,32
490,377	7941,07
490,576	7546,5
490,776	7467,28
490,975	8333,14
491,175	8173,51
491,374	7807,38
491,574	7449,06
491,773	7924,35
491,973	8129,74
492,172	7551,1
492,372	7514,85
492,571	8577,09
492,771	7954,19
492,97	7488,81
493,169	7722,05
493,369	8206,75
493,568	7943,07
493,767	7488,41
493,967	7621,71
494,166	8122,53
494,365	7987,04
494,565	7585,25
494,764	7702,92
494,963	8206,15
495,163	8743,83
495,362	7737,67
495,561	7553,41
495,76	8413,25
495,959	8148,57
496,159	7989,64
496,358	7837,42
496,557	8558,87
496,756	8160,29
496,955	7739,88
497,155	7910,73
497,354	8653
497,553	8306,1
497,752	8044,02
497,951	8079,87
498,15	8549,55
498,349	8502,88
498,548	8009,17
498,747	8169,5
498,946	8845,28
499,145	8506,99
499,344	8174,91
499,543	8288,67
499,742	8634,98
499,941	8546,85
500,14	8123,53
500,339	8254,52
500,538	9034,25
500,737	9075,41
500,936	8474,04
501,135	8435,59
501,334	9097,15
501,533	9029,25
501,732	8611,44
501,931	8551,55
502,129	9321,97
502,328	9676,18
502,527	8829,46
502,726	8722,7
502,925	9538,89
503,123	9826,1
503,322	9277,81
503,521	9114,37
503,72	9796,96
503,919	9716,64
504,117	9388,17
504,316	9528,17
504,515	10207,86
504,713	10398,33
504,912	9690,01
505,111	9931,05
505,309	10485,96
505,508	10508,99
505,707	10218,67
505,905	9943,67
506,104	11086,73
506,302	11051,58
506,501	10521,51
506,7	10941,82
506,898	11453,26
507,097	11496,12
507,295	11260,28
507,494	10908,77
507,692	12046,92
507,891	11767,72
508,089	11523,26
508,288	11899,01
508,486	12575,69
508,685	12660,91
508,883	12300,19
509,082	12174,01
509,28	13323,07
509,478	13181,97
509,677	13107,56
509,875	13016,73
510,073	14181,92
510,272	13922,44
510,47	13672,28
510,669	13507,94
510,867	14557,96
511,065	14654,2
511,263	14415,96
511,462	14511,89
511,66	15237,65
511,858	15675,48
512,056	15139,3
512,255	15936,76
512,453	16262,33
512,651	16179,81
512,849	16149,57
513,048	16028,09
513,246	16978,57
513,444	17260,48
513,642	16901,26
513,84	16978,17
514,038	17998,75
514,236	17902,11
514,435	17861,35
514,633	18156,18
514,831	18948,63
515,029	19385,96
515,227	19099,45
515,425	19038,06
515,623	19761
515,821	20174,1
516,019	20139,55
516,217	20158,98
516,415	21228,23
516,613	21342,9
516,811	21196,28
517,009	21303,24
517,207	22292,77
517,405	22342,75
517,602	22356,57
517,8	22216,36
517,998	23228,73
518,196	23610,38
518,394	23254,57
518,592	23391,47
518,79	24751,74
518,987	24695,66
519,185	24437,18
519,383	24494,77
519,581	26028,19
519,779	25586,05
519,976	25865,65
520,174	25743,08
520,372	26869,41
520,57	26702,97
520,767	26803,81
520,965	26760,35
521,163	27725,75
521,36	28410,94
521,558	27965
521,756	28256,82
521,953	29334,08
522,151	29193,08
522,349	28867,4
522,546	29096,74
522,744	30311
522,941	29850,53
523,139	30017,17
523,336	30630,46
523,534	31610,28
523,731	31449,15
523,929	31082,62
524,126	31248,96
524,324	32070,15
524,521	32636,37
524,719	32415,35
524,916	32357,76
525,114	32639,37
525,311	32866,2
525,509	33401,88
525,706	33009,51
525,903	34719,59
526,101	34290,87
526,298	34216,56
526,496	34002,65
526,693	35391,76
526,89	35096,94
527,088	35082,11
527,285	34849,48
527,482	35989,13
527,679	35893,89
527,877	35838,31
528,074	35804,66
528,271	37136,39
528,468	37480,89
528,666	37013,01
528,863	36838,86
529,06	38141,25
529,257	38141,25
529,454	37970
529,652	37863,04
529,849	39413,59
530,046	39014,21
530,243	38898,85
530,44	38663,3
530,637	39717,53
530,834	39729,25
531,031	39482,09
531,228	39700,81
531,425	41077,4
531,622	40879,42
531,819	40915,27
532,016	40791,39
532,213	41323,66
532,41	41744,87
532,607	41662,25
532,804	41626,1
533,001	42564,36
533,198	42792,39
533,395	42666,01
533,592	42096,58
533,789	43662,65
533,986	43275,69
534,183	43733,55
534,38	43489,5
534,576	44740,31
534,773	44235,98
534,97	43985,22
535,167	43893,89
535,364	45554,19
535,561	44873,11
535,757	45247,35
535,954	44876,71
536,151	45829,99
536,348	45746,77
536,544	45607,77
536,741	45116,36
536,938	46454,2
537,134	46310,79
537,331	46596,1
537,528	46108,2
537,724	47244,14
537,921	46226,17
538,118	47207,19
538,314	46079,86
538,511	48007,65
538,707	47646,23
538,904	47837,6
539,101	47352,9
539,297	48636,76
539,494	48091,47
539,69	48056,62
539,887	47967,29
540,083	49368,42
540,28	48894,14
540,476	48911,96
540,673	48176,8
540,869	50036,99
541,066	49182,55
541,262	49316,35
541,458	49243,64
541,655	50172,89
541,851	50481,54
542,048	50274,04
542,244	49827,89
542,44	50643,77
542,637	50573,07
542,833	51131,68
543,029	50709,77
543,226	51575,82
543,422	51635,61
543,618	51459,05
543,814	51059,98
544,011	52058,32
544,207	51475,48
544,403	51698,6
544,599	51897,29
544,796	52461,71
544,992	52442,18
545,188	52252
545,384	52205,84
545,58	52946,31
545,776	53113,05
545,972	52543,73
546,169	52462,21
546,365	53639,81
546,561	53494,7
546,757	53490,7
546,953	53195,07
547,149	54110,8
547,345	53490,5
547,541	53607,07
547,737	52790,88
547,933	53979,71
548,129	53721,23
548,325	54015,86
548,521	53385,15
548,717	54910,36
548,913	54138,64
549,109	54433,47
549,305	53953,17
549,501	54832,64
549,697	54893,33
549,892	54637,36
550,088	54197,52
550,284	55207,79
550,48	55080,8
550,676	55362,81
550,872	54065,33
551,067	55595,65
551,263	54994,58
551,459	55113,05
551,655	55002,09
551,85	55684,58
552,046	55572,02
552,242	55055,27
552,438	54910,56
552,633	55949,06
552,829	55588,14
553,025	55978,81
553,22	55494,9
553,416	56184,9
553,612	55770,7
553,807	56117,41
554,003	55897,39
554,198	56453,89
554,394	56399,82
554,59	56631,15
554,785	55589,14
554,981	57191,76
555,176	56546,03
555,372	56619,83
555,567	56403,32
555,763	57317,05
555,958	56474,82
556,154	56645,87
556,349	56801,7
556,545	57274,88
556,74	56880,71
556,936	57043,65
557,131	56708,36
557,326	57033,83
557,522	57319,55
557,717	56993,88
557,912	56609,72
558,108	57456,45
558,303	57103,74
558,498	57614,28
558,694	57021,62
558,889	57642,72
559,084	57739,86
559,28	57733,15
559,475	57554,09
559,67	58260,61
559,865	58081,65
560,061	57743,66
560,256	57668,86
560,451	57936,24
560,646	57638,51
560,841	58137,23
561,037	57399,06
561,232	58292,46
561,427	58028,48
561,622	57935,34
561,817	57460,55
562,012	58332,12
562,207	58339,63
562,402	58139,54
562,597	57646,02
562,792	58129,62
562,987	58293,76
563,182	58005,84
563,377	57536,96
563,572	58851,77
563,767	57917,42
563,962	58184,7
564,157	57756,18
564,352	58201,43
564,547	58379,59
564,742	58350,74
564,937	58054,92
565,132	58632,35
565,327	58597,8
565,522	58536,81
565,716	58190,21
565,911	59017,01
566,106	58441,38
566,301	58704,06
566,496	57901,39
566,691	59188,76
566,885	58683,53
567,08	58670,01
567,275	58052,71
567,47	59027,53
567,664	58188,81
567,859	58636,16
568,054	58061,32
568,248	58859,68
568,443	58794,29
568,638	58845,26
568,832	58244,99
569,027	59031,03
569,222	58683,33
569,416	58623,04
569,611	58512,38
569,805	58855,68
570	58865,29
570,195	58120,61
570,389	58276,34
570,584	58571,06
570,778	58217,55
570,973	58757,23
571,167	57805,55
571,362	58811,71
571,556	58150,25
571,751	58539,62
571,945	57823,28
572,139	58723,28
572,334	58430,76
572,528	58278,44
572,723	58001,84
572,917	58913,76
573,111	58516,58
573,306	58649,48
573,5	58611,42
573,694	58883,72
573,889	58709,66
574,083	58892,73
574,277	58141,34
574,472	58535,71
574,666	58493,45
574,86	58268,12
575,054	58155,86
575,249	59070,39
575,443	58330,51
575,637	58496,86
575,831	58146,95
576,025	58744,31
576,219	57862,04
576,414	58150,95
576,608	57757,08
576,802	58680,92
576,996	58128,12
577,19	57979,91
577,384	57937,44
577,578	58174,29
577,772	57770,1
577,966	58448,29
578,16	57329,76
578,354	58510,48
578,548	57779,22
578,742	57833,59
578,936	57510,23
579,13	58367,47
579,324	57860,13
579,518	57926,23
579,712	57075,9
579,906	58123,71
580,1	57507,32
580,294	57989,32
580,488	57007,2
580,682	58058,52
580,875	57561,1
581,069	57244,84
581,263	56978,86
581,457	57716,72
581,651	57569,51
581,845	57594,65
582,038	56817,52
582,232	57930,53
582,426	56737,31
582,62	57869,05
582,813	56756,33
583,007	57768
583,201	56640,56
583,394	56929,78
583,588	56637,96
583,782	57232,82
583,975	57139,39
584,169	57548,58
584,363	57040,34
584,556	57449,14
584,75	57036,34
584,943	56954,02
585,137	56538,12
585,33	56949,81
585,524	56464,11
585,718	56676,72
585,911	55832,79
586,105	56703,76
586,298	55994,63
586,491	56263,42
586,685	56244,99
586,878	56755,53
587,072	56043,1
587,265	56024,77
587,459	55496,21
587,652	56729,79
587,845	55534,26
588,039	56260,61
588,232	55751,48
588,426	56574,77
588,619	55805,75
588,812	55500,81
589,005	55149,3
589,199	55864,54
589,392	55285
589,585	55427,71
589,779	54856,08
589,972	55582,63
590,165	55233,73
590,358	55267,37
590,551	54872,9
590,745	55420,6
590,938	55271,18
591,131	55409,78
591,324	53159,62
591,517	55763,79
591,71	55038,54
591,904	55172,04
592,097	54402,52
592,29	55253,75
592,483	54323,41
592,676	54572,47
592,869	53791,84
593,062	54575,67
593,255	53931,64
593,448	53937,65
593,641	53355,2
593,834	54241,49
594,027	53913,91
594,22	53839,5
594,413	53598,05
594,606	54172,99
594,799	53275,39
594,992	53418,09
595,184	52579,18
595,377	53245,34
595,57	53245,54
595,763	53517,44
595,956	52599,01
596,149	53664,05
596,341	53562,1
596,534	53106,04
596,727	52936,4
596,92	53447,54
597,113	53116,56
597,305	52683,33
597,498	52301,58
597,691	52669,71
597,883	52400,02
598,076	52401,02
598,269	52249,7
598,462	52702,66
598,654	52389,4
598,847	52275,44
599,039	52035,29
599,232	52454,7
599,425	52284,75
599,617	51547,78
599,81	51778,32
600,002	51842,31
600,195	50801
600,387	51470,07
600,58	50754,53
600,772	51643,42
600,965	51033,54
601,157	51121,76
601,35	51003,09
601,542	51409,88
601,735	51091,52
601,927	51352,1
602,12	50329,32
602,312	51085,71
602,504	50371,78
602,697	49969,49
602,889	49914,11
603,082	50482,74
603,274	50032,59
603,466	49949,06
603,659	49105,84
603,851	49860,14
604,043	49632,31
604,235	49884,17
604,428	48505,27
604,62	49678,57
604,812	49386,95
605,004	49391,86
605,197	48620,24
605,389	49669,56
605,581	48967,94
605,773	48958,33
605,965	48335,53
606,157	48777,87
606,349	48400,72
606,542	48210,24
606,734	47706,41
606,926	48708,77
607,118	48038,4
607,31	47717,23
607,502	46873,41
607,694	48218,76
607,886	47152,51
608,078	47913,41
608,27	47115,46
608,462	47915,22
608,654	47047,36
608,846	47753,88
609,038	47001,19
609,23	47700,61
609,422	47512,43
609,614	46842,16
609,805	46719,78
609,997	47127,98
610,189	47616,18
610,381	47351,6
610,573	46206,14
610,765	47243,34
610,957	46554,44
611,148	46258,21
611,34	45819,08
611,532	47303,53
611,724	46872
611,915	46380,69
612,107	45914,02
612,299	46974,15
612,491	46371,58
612,682	46158,67
612,874	45499,31
613,066	46522
613,257	46004,35
613,449	46139,64
613,64	45770,11
613,832	46014,96
614,024	46208,64
614,215	45502,52
614,407	45659,75
614,598	46351,55
614,79	46098,38
614,981	45969,6
615,173	45709,32
615,364	46687,44
615,556	46122,52
615,747	46398,92
615,939	45237,23
616,13	46472,32
616,322	46269,53
616,513	45832,3
616,705	45496,61
616,896	46649,58
617,087	45799,25
617,279	46297,77
617,47	45439,53
617,661	46743,52
617,853	46051,82
618,044	45865,04
618,235	45869,55
618,427	46388,4
618,618	46255,71
618,809	46018,27
619	45473,68
619,192	46455
619,383	45598,66
619,574	45738,26
619,765	45313,34
619,957	46461,31
620,148	45597,66
620,339	46003,45
620,53	45240,84
620,721	46123,62
620,912	45496,81
621,103	45831,2
621,294	45166,63
621,485	45679,28
621,677	45329,77
621,868	45174,24
622,059	44509,08
622,25	45340,58
622,441	44844,26
622,632	44504,97
622,823	44226,47
623,014	44669,81
623,205	44816,72
623,395	43558,2
623,586	43279,8
623,777	44437,48
623,968	43527,26
624,159	43409,79
624,35	43227,52
624,541	43750,18
624,732	43492,2
624,923	43058,88
625,113	42583,99
625,304	42723,59
625,495	42562,76
625,686	42404,03
625,877	42162,28
626,067	42383
626,258	42574,88
626,449	41735,96
626,639	41231,53
626,83	42091,88
627,021	41190,17
627,211	41208,39
627,402	40671,82
627,593	42670,01
627,783	41240,24
627,974	41036,85
628,165	40438,88
628,355	40968,05
628,546	40418,95
628,736	40295,57
628,927	39440,93
629,117	40554,85
629,308	39896,09
629,498	39242,95
629,689	38868,1
629,879	39657,35
630,07	39485,7
630,26	38602,62
630,451	38649,48
630,641	39213,7
630,832	38753,04
631,022	38524,6
631,212	37699,91
631,403	38464,32
631,593	37869,35
631,784	37556,2
631,974	37212,2
632,164	37927,64
632,355	37363,72
632,545	37259,17
632,735	36726
632,925	36936,1
633,116	36953,43
633,306	36392,31
633,496	35759,4
633,686	36729
633,876	36253,71
634,067	35587,95
634,257	35572,22
634,447	36094,08
634,637	35879,97
634,827	35343,09
635,017	35567,32
635,208	35959,19
635,398	35211,3
635,588	34999,79
635,778	34548,74
635,968	35455,15
636,158	34836,66
636,348	34724,09
636,538	34237,69
636,728	35341,09
636,918	34217,56
637,108	34492,86
637,298	33680,88
637,488	34634,16
637,678	34311,4
637,868	33488
638,057	33393,77
638,247	34032,69
638,437	33948,47
638,627	33621,2
638,817	32691,75
639,007	33730,65
639,197	33170,64
639,386	32734,11
639,576	32446,69
639,766	33032,24
639,956	32866,1
640,145	32414,05
640,335	31775,52
640,525	32658,3
640,715	32120,82
640,904	32133,64
641,094	31385,25
641,284	32195,73
641,473	31960,39
641,663	31223,62
641,853	31324,77
642,042	31730,25
642,232	31192,98
642,421	30987,98
642,611	30952,43
642,801	31348,8
642,99	31392,06
643,18	30749,43
643,369	30376,19
643,559	30888,84
643,748	30674,72
643,938	30050,62
644,127	29766,31
644,317	30761,75
644,506	30048,52
644,695	29760,8
644,885	29876,17
645,074	30016,77
645,264	29973,61
645,453	29397,27
645,642	29333,98
645,832	29918,33
646,021	29446,44
646,21	29150,31
646,4	28717,09
646,589	29582,64
646,778	28840,07
646,967	28780,48
647,157	27961,69
647,346	28916,98
647,535	28570,47
647,724	27869,66
647,913	27902,21
648,103	28366,48
648,292	28458,61
648,481	27767,81
648,67	27646,94
648,859	28266,63
649,048	27959,69
649,237	27254,17
649,427	26984,48
649,616	27455,46
649,805	27130,79
649,994	26874,62
650,183	26749,84
650,372	27707,62
650,561	26687,44
650,75	26361,87
650,939	26017,97
651,128	26832,66
651,317	26704,47
651,506	26385,51
651,694	25904,61
651,883	26627,56
652,072	26585,7
652,261	25726,15
652,45	25128,58
652,639	26530,62
652,828	25937,56
653,016	25663,06
653,205	25180,46
653,394	25822,19
653,583	25878,37
653,772	25402,48
653,96	24978,87
654,149	25600,97
654,338	25014,12
654,527	24971,46
654,715	24438,68
654,904	25589,65
655,093	24931,7
655,281	24553,15
655,47	24103
655,658	24666,41
655,847	24751,64
656,036	23916,03
656,224	23596,36
656,413	24259,32
656,601	23871,46
656,79	23889,59
656,978	23324,17
657,167	24242,9
657,355	23720,14
657,544	23491,01
657,732	22917,08
657,921	23738,07
658,109	23620,7
658,298	23168,04
658,486	22499,77
658,675	23243,65
658,863	22992,89
659,051	22647,09
659,24	22367,78
659,428	23209,6
659,616	22989,48
659,805	22274,35
659,993	21782,73
660,181	22793,2
660,37	22263,63
660,558	21750,29
660,746	21509,44
660,934	22014,47
661,123	21782,53
661,311	21440,24
661,499	21300,14
661,687	21813,68
661,875	21602,47
662,064	21272,39
662,252	20880,03
662,44	21308,95
662,628	21460,87
662,816	20543,34
663,004	20722,3
663,192	20986,78
663,38	21313,15
663,568	20483,45
663,756	20323,22
663,944	20830,35
664,132	20684,04
664,32	20694,66
664,508	19779,63
664,696	20605,63
664,884	20061,64
665,072	19609,68
665,26	19166,34
665,448	20308,2
665,636	19916,63
665,824	19501,13
666,012	19205,4
666,199	19914,63
666,387	19598,57
666,575	18929,2
666,763	19013,22
666,951	19658,76
667,139	19293,53
667,326	18761,15
667,514	18397,93
667,702	19429,62
667,889	19161,54
668,077	18435,68
668,265	18285,06
668,453	18873,32
668,64	18664,71
668,828	18091,08
669,016	17710,23
669,203	18611,24
669,391	18267,14
669,578	18122,93
669,766	17594,26
669,954	18342,15
670,141	17976,22
670,329	17406,29
670,516	17161,14
670,704	17682,29
670,891	17658,56
671,079	17333,08
671,266	17059,89
671,454	17860,05
671,641	17545,29
671,828	16974,46
672,016	16710,98
672,203	17389,77
672,391	16896,35
672,578	16583,8
672,765	16188,93
672,953	17132,89
673,14	16783,79
673,327	16211,96
673,515	16143,06
673,702	16949,43
673,889	16625,86
674,077	16036,81
674,264	15809,38
674,451	16379,3
674,638	16175,81
674,825	15864,36
675,013	15239,85
675,2	16177,81
675,387	15877,27
675,574	15115,27
675,761	15144,21
675,948	15584,85
676,136	15537,88
676,323	15094,74
676,51	14609,14
676,697	15581,04
676,884	15439,24
677,071	14750,64
677,258	14616,45
677,445	15317,76
677,632	14905,27
677,819	14389,72
678,006	14277,86
678,193	15130,79
678,38	14953,74
678,567	14345,15
678,754	14235,69
678,94	14822,04
679,127	14809,73
679,314	14025,19
679,501	13755,5
679,688	14373,79
679,875	13999,65
680,062	13858,05
680,248	13491,12
680,435	13959,79
680,622	14027,89
680,809	13733,37
680,995	13384,46
681,182	14146,47
681,369	13783,84
681,556	13238,75
681,742	13145,21
681,929	13759,9
682,116	13758,3
682,302	13155,93
682,489	12759,55
682,675	13475,79
682,862	13599,67
683,049	12657,41
683,235	12790,6
683,422	13365,53
683,608	13189,18
683,795	12525,21
683,981	12229,39
684,168	13317,16
684,354	12847,78
684,541	12972,76
684,727	12358,37
684,914	12911,07
685,1	12394,02
685,287	11918,03
685,473	11924,24
685,659	12679,64
685,846	12284,37
686,032	11769,22
686,218	11918,34
686,405	12619,55
686,591	12178,01
686,777	11777,73
686,964	11529,47
687,15	12010,17
687,336	11981,83
687,522	11356,12
687,709	11166,65
687,895	12068,85
688,081	12001,96
688,267	11206,2
688,454	11078,42
688,64	11743,88
688,826	11548,9
689,012	11100,55
689,198	11049,18
689,384	11533,58
689,57	11726,56
689,756	10691,86
689,942	10926,2
690,128	11451,86
690,314	11415,31
690,501	10686,05
690,687	10744,23
690,873	11298,64
691,058	10980,38
691,244	10224,08
691,43	10234,49
691,616	10691,56
691,802	10782,09
691,988	10188,23
692,174	9975,22
692,36	10722,3
692,546	10531,73
692,732	10108,81
692,917	10091,49
693,103	10598,32
693,289	10580,9
693,475	9864,16
693,661	9575,64
693,846	10474,24
694,032	10082,27
694,218	9577,14
694,404	9607,69
694,589	10125,64
694,775	9976,22
694,961	9548,2
695,146	9406,39
695,332	9928,45
695,518	9977,42
695,703	9221,73
695,889	9149,32
696,074	9905,02
696,26	10059,64
696,446	9080,12
696,631	9091,64
696,817	9638,23
697,002	9492,52
697,188	9023,24
697,373	8725,81
697,559	9716,84
697,744	9560,32
697,93	8897,46
698,115	8602,63
698,3	9249,17
698,486	9151,32
698,671	8601,63
698,857	8323,12
699,042	9132
699,227	9015,73
699,413	8556,26
699,598	8329,63
699,783	9127,89
699,969	9099,45
700,154	8436,29
700,339	8028,1
700,524	8834,67
700,71	8656,81
700,895	7911,73
701,08	8030,9
701,265	8803,92
701,45	8559,97
701,636	8054,23
701,821	7957,49
702,006	8326,63
702,191	8515
702,376	7875,37
702,561	7720,55
702,746	8402,14
702,931	8530,12
703,116	7766,62
703,301	7529,77
703,486	8407,75
703,671	7803,57
703,856	7594,97
704,041	7494,62
704,226	8236,8
704,411	8057,44
704,596	10641,18
704,781	7260,28
704,966	7989,84
705,151	7718,85
705,336	7116,77
705,521	7386,07
705,706	7823
705,89	7795,96
706,075	7152,03
706,26	6996,3
706,445	7627,92
706,63	7586,46
706,814	6935,91
706,999	6780,79
707,184	7537,08
707,368	7471,49
707,553	6930
707,738	6638,78
707,923	7559,92
708,107	7211,91
708,292	6743,23
708,476	6940,12
708,661	7249,27
708,846	7187,78
709,03	6744,13
709,215	6588,31
709,399	7461,37
709,584	7160,94
709,768	6492,87
709,953	6631,77
710,137	6907,97
710,322	7107,86
710,506	6339,95
710,691	6355,57
710,875	7068,2
711,06	6717
711,244	6279,46
711,429	6087,88
711,613	6938,42
711,797	6568,48
711,982	6149,17
712,166	5998,45
712,35	6739,83
712,535	6842,08
712,719	6106,01
712,903	5770,32
713,088	6670,43
713,272	6411,35
713,456	5747,99
713,64	6005,96
713,824	6469,14
714,009	6441
714,193	5777,83
714,377	5565,13
714,561	6250,12
714,745	6253,82
714,929	5649,55
715,113	5614,4
715,298	6265,24
715,482	6083,48
715,666	5546,4
715,85	5333,09
716,034	6230,59
716,218	5746,39
716,402	5419,31
716,586	5211,11
716,77	6164,9
716,954	5967,91
717,138	5314,46
717,322	5136,9
717,506	6096,2
717,689	5847,03
717,873	5093,14
718,057	5023,04
718,241	5894,6
718,425	5464,58
718,609	4935,71
718,793	4932,31
718,976	5622,31
719,16	5546,7
719,344	4882,74
719,528	4898,16
719,711	5377,05
719,895	5299,64
720,079	4778,08
720,263	4738,03
720,446	5302,14
720,63	5340,9
720,814	4645,79
720,997	4876,03
721,181	5172,46
721,364	5137,61
721,548	4610,24
721,732	4442,4
721,915	5139,71
722,099	4855,1
722,282	4441,4
722,466	4518,11
722,649	5053,48
722,833	5027,25
723,016	4353,77
723,2	4407,75
723,383	5064,4
723,567	4876,33
723,75	4407,25
723,934	4387,62
724,117	4837,97
724,3	4955,54
724,484	4202,55
724,667	4160,89
724,85	4898,16
725,034	4586,51
725,217	4114,02
725,4	4134,05
725,584	4436,99
725,767	4517,61
725,95	4054,74
726,133	4216,37
726,317	4316,32
726,5	4712,09
726,683	3939,37
726,866	3838,52
727,049	4549,75
727,232	4229,89
727,416	3899,81
727,599	3766,32
727,782	4435,09
727,965	4204,65
728,148	3850,84
728,331	3723,46
728,514	4311,81
728,697	4498,68
728,88	3764,62
729,063	3676,69
729,246	4580,2
729,429	4472,44
729,612	3738,58
729,795	3769,02
729,978	4074,56
730,161	4004,26
730,344	3643,84
730,526	3528,87
730,709	4263,94
730,892	4140,56
731,075	3543,29
731,258	3433,94
731,441	4136,25
731,623	3805,78
731,806	3511,25
731,989	3383,16
732,172	4335,74
732,354	4010,07
732,537	3680,19
732,72	3310,76
732,903	4011,97
733,085	4003,66
733,268	3213,22
733,451	3276,51
733,633	3877,48
733,816	3537,09
733,998	3302,35
734,181	3232,54
734,364	3989,34
734,546	3672,28
734,729	3113,97
734,911	3280,71
735,094	3932,86
735,276	3687,1
735,459	3089,54
735,641	3221,43
735,824	3841,03
736,006	3681,19
736,188	3178,17
736,371	3000,41
736,553	3355,32
736,736	3494,12
736,918	3151,63
737,1	3068,21
737,283	3656,56
737,465	3435,64
737,647	2876,63
737,83	2883,84
738,012	3442,75
738,194	3265,99
738,376	2841,58
738,559	2842,58
738,741	3258,08
738,923	3285,72
739,105	3014,83
739,287	2859,3
739,469	3360,03
739,652	3580,15
739,834	2857,2
740,016	2744,84
740,198	3362,03
740,38	3051,18
740,562	2581,8
740,744	2835,37
740,926	3223,43
741,108	3280,11
741,29	2535,23
741,472	2824,25
741,654	3524,57
741,836	3226,03
742,018	2660,62
742,2	2674,34
742,382	3291,43
742,564	3159,74
742,746	2500,18
742,928	2585,41
743,109	2932,41
743,291	2959,65
743,473	2427,68
743,655	2549,75
743,837	3092,14
744,019	2845,58
744,2	2550,05
744,382	2597,62
744,564	3083,53
744,746	2808,03
744,927	2386,12
745,109	2292,18
745,291	3051,48
745,472	2855,5
745,654	2454,52
745,836	2404,44
746,017	2729,01
746,199	2845,68
746,38	2188,93
746,562	2081,78
746,744	2782,39
746,925	2744,44
747,107	2280,26
747,288	2283,07
747,47	2735,32
747,651	2744,24
747,833	2055,14
748,014	2235,4
748,195	2554,26
748,377	2580,1
748,558	2008,97
748,74	1987,94
748,921	2723,11
749,102	2510,8
749,284	1944,08
749,465	2078,97
749,646	2523,32
749,828	2504,69
750,009	1836,52
750,19	1947,48
750,372	2280,06
750,553	2541,44
750,734	1928,05
750,915	1767,62
751,096	2462,93
751,278	2390,12
751,459	1891,5
751,64	1707,73
751,821	2579,8
752,002	2356,27
752,183	2001,46
752,364	1799,27
752,546	2312,11
752,727	2491,17
752,908	1855,15
753,089	1873,07
753,27	2252,82
753,451	2427,08
753,632	1909,03
753,813	1596,97
753,994	2403,24
754,175	2231,79
754,356	2027,9
754,536	1742,38
754,717	2185,23
754,898	2271,25
755,079	1816,79
755,26	1723,56
755,441	2294,38
755,622	2176,91
755,802	1704,03
755,983	1698,72
756,164	2239,91
756,345	2197,84
756,526	1656,26
756,706	1649,75
756,887	2076,87
757,068	2022,39
757,248	2173,91
757,429	1939,27
757,61	2388,02
757,79	2014,68
757,971	1701,52
758,152	1615,8
758,332	2167,7
758,513	2249,22
758,693	1648,75
758,874	1635,03
759,055	2297,09
759,235	2314,91
759,416	1708,23
759,596	1778,64
759,777	2076,57
759,957	2269,45
760,137	1789,25
760,318	1766,62
760,498	2121,53
760,679	2020,69
760,859	1615,4
761,039	1803,47
761,22	2113,52
761,4	2112,32
761,581	1799,47
761,761	1810,78
761,941	2070,76
762,121	2423,57
762,302	1798,97
762,482	1793,06
762,662	2057,04
762,842	2307,2
763,023	1562,02
763,203	1684,8
763,383	2197,34
763,563	1915,23
763,743	1759,31
763,923	1560,62
764,104	2137,36
764,284	2159,69
764,464	1802,77
764,644	1632,73
764,824	2200,65
765,004	2042,52
765,184	1582,25
765,364	1502,54
765,544	2075,87
765,724	1990,34
765,904	1667,88
766,084	1516,46
766,264	2017,98
766,444	2172,11
766,624	1607,69
766,804	1661,77
766,983	2169,7
767,163	2111,42
767,343	1797,36
767,523	1576,34
767,703	2238,2
767,883	1779,74
768,062	1529,28
768,242	1441,85
768,422	1977,02
768,602	1893,7
768,781	1384,26
768,961	1465,28
769,141	2069,56
769,32	2011,97
769,5	1481,61
769,68	1497,03
769,859	2022,29
770,039	2166,1
770,219	1261,69
770,398	1418,51
770,578	1975,72
770,757	2019,69
770,937	1278,11
771,116	1179,37
771,296	1793,66
771,475	1831,11
771,655	1267,8
771,834	1250,27
772,014	1926,95
772,193	1653,25
772,373	1178,77
772,552	1142,21
772,731	1597,37
772,911	1888,1
773,09	1388,67
773,269	1233,45
773,449	1633,03
773,628	1537,89
773,807	1005,02
773,987	1371,65
774,166	1689,51
774,345	1574,94
774,524	1215,52
774,704	979,88
774,883	1730,17
775,062	1913,03
775,241	1082,93
775,42	1116,98
775,6	1366,44
775,779	1512,85
775,958	1048,68
776,137	1191,19
776,316	1675,19
776,495	1532,58
776,674	1095,05
776,853	977,88
777,032	1681,5
777,211	1376,85
777,39	1086,63
777,569	993,4
777,748	1591,57
777,927	1494,83
778,106	982,88
778,285	974,17
778,464	1412,71
778,643	1512,45
778,822	964,06
779	896,66
779,179	1563,62
779,358	1535,18
779,537	954,84
779,716	943,73
779,894	1470,19
780,073	1505,84
780,252	906,97
780,431	952,54
780,609	1501,23
780,788	1310,36
780,967	734,32
781,145	945,03
781,324	1478,7
781,503	1158,44
781,681	592,62
781,86	745,64
782,039	1355,22
782,217	1047,58
782,396	718,5
782,574	610,74
782,753	1290,53
782,931	1453,06
783,11	850,29
783,288	747,44
783,467	1285,12
783,645	1134,6
783,824	751,35
784,002	596,42
784,18	1182,37
784,359	1407,5
784,537	695,87
784,716	838,67
784,894	1181,67
785,072	1191,29
785,251	860,51
785,429	622,56
785,607	1231,84
785,785	1189,78
785,964	697,57
786,142	543,15
786,32	1137,21
786,498	1012,63
786,677	625,16
786,855	576,79
787,033	1158,74
787,211	1220,03
787,389	621,76
787,567	778,99
787,745	1036,26
787,923	1226,94
788,102	771,08
788,28	536,24
788,458	1044,77
788,636	1094,54
788,814	540,74
788,992	588,01
789,17	1051,88
789,348	1082,83
789,526	472,54
789,703	936,62
789,881	1224,03
790,059	1092,14
790,237	452,11
790,415	480,76
790,593	1199,3
790,771	991,5
790,949	610,24
791,126	604,43
791,304	972,37
791,482	919,79
791,66	610,34
791,837	469,64
792,015	918,89
792,193	1031,85
792,371	412,66
792,548	471,24
792,726	956,14
792,904	1059,89
793,081	504,79
793,259	568,18
793,436	1128,39
793,614	860,31
793,792	696,47
793,969	470,64
794,147	1019,94
794,324	954,34
794,502	521,91
794,679	350,97
794,857	920,29
795,034	944,73
795,212	485,66
795,389	386,02
795,567	919,59
795,744	1184,48
795,921	625,57
796,099	335,34
796,276	1137,81
796,453	832,77
796,631	204,45
796,808	359,18
796,985	724,11
797,163	777,79
797,34	475,65
797,517	336,35
797,694	909,08
797,872	977,38
798,049	298,29
798,226	549,86
798,403	855,5
798,58	620,36
798,757	701,48
798,935	378,81
799,112	1018,63
799,289	613,85
799,466	297,99
799,643	391,63
799,82	903,97
799,997	858,2
800,174	324,63
800,351	179,42
800,528	749,44
800,705	799,62
800,882	543,15
801,059	379,91
801,236	884,74
801,413	795,91
801,589	239,71
801,766	272,05
801,943	704,28
802,12	675,44
802,297	415,76
802,474	246,01
802,651	902,67
802,827	823,55
803,004	102,31
803,181	268,75
803,358	902,47
803,534	616,35
803,711	312,51
803,888	371,8
804,064	845,38
804,241	819,75
804,418	286,37
804,594	103,91
804,771	647,9
804,947	561,07
805,124	209,66
805,301	165,5
805,477	828,76
805,654	932,01
805,83	276,66
806,007	360,68
806,183	742,53
806,36	691,96
806,536	318,52
806,712	232,4
806,889	617,55
807,065	808,73
807,242	365,09
807,418	314,31
807,594	808,03
807,771	680,65
807,947	568,88
808,123	166,6
808,3	838,97
808,476	620,26
808,652	79,67
808,829	107,51
809,005	945,23
809,181	732,52
809,357	165,5
809,533	134,65
809,71	676,14
809,886	412,26
810,062	248,52
810,238	171,21
810,414	463,43
810,59	415,96
810,766	91,89
810,942	229,69
811,118	683,75
811,294	773,48
811,47	105,51
811,646	189,03
811,822	678,94
811,998	819,25
812,174	267,65
812,35	35,51
812,526	581,5
812,702	494,58
812,878	504,49
813,054	-20,97
813,23	675,94
813,405	599,03
813,581	300,59
813,757	62,35
813,933	469,34
814,109	833,97
814,284	105,31
814,46	95,7
814,636	672,53
814,812	624,86
814,987	86,88
815,163	137,06
815,339	906,87
815,514	363,59
815,69	122,94
815,866	-20,67
816,041	634,78
816,217	715,8
816,392	213,77
816,568	10,57
816,743	832,97
816,919	438,59
817,094	149,78
817,27	-39,2
817,445	730,72
817,621	548,45
817,796	72,26
817,972	90,49
818,147	649,8
818,322	592,82
818,498	130,35
818,673	-115,61
818,849	618,35
819,024	1082,33
819,199	178,72
819,375	65,75
819,55	562,97
819,725	737,43
819,9	140,06
820,076	226,19
820,251	540,14
820,426	316,42
820,601	-57,02
820,776	-146,35
820,952	571,19
821,127	589,31
821,302	-111,9
821,477	298,49
821,652	397,23
821,827	1075,72
822,002	70,26
822,177	-123,72
822,352	660,52
822,527	379,51
822,702	-31,59
822,877	-40,5
823,052	791,51
823,227	433,99
823,402	48,13
823,577	3,36
823,752	538,14
823,927	408,55
824,102	-80,56
824,277	132,15
824,451	393,03
824,626	472,24
824,801	5,27
824,976	-64,03
825,151	468,44
825,325	532,03
825,5	39,72
825,675	-211,45
825,85	722,51
826,024	435,09
826,199	-0,44
826,374	88,59
826,548	615,15
826,723	509,9
826,897	180,02
827,072	109,52
827,247	433,09
827,421	347,66
827,596	18,38
827,77	-119,21
827,945	287,88
828,119	725,01
828,294	21,79
828,468	-66,14
828,643	749,44
828,817	461,63
828,992	1030,95
829,166	-168,89
829,34	527,92
829,515	366,59
829,689	-48,51
829,864	-60,43
830,038	464,13
830,212	409,25
830,386	-0,34
830,561	-119,11
830,735	583,2
830,909	560,37
831,084	-183,81
831,258	146,27
831,432	581,7
831,606	417,56
831,78	106,91
831,954	-206,84
832,129	558,17
832,303	368,79
832,477	10,87
832,651	3,66
832,825	879,93
832,999	416,26
833,173	-122,92
833,347	64,55
833,521	499,78
833,695	467,94
833,869	52,83
834,043	-205,24
834,217	300,49
834,391	255,73
834,565	377,61
834,739	-87,97
834,913	260,84
835,086	365,19
835,26	29
835,434	-140,75
835,608	532,53
835,782	487,16
835,956	-30,59
836,129	-46,51
836,303	587,11
836,477	249,82
836,651	-64,13
836,824	-173,19
836,998	487,06
837,172	456,02
837,345	-122,52
837,519	-30,69
837,693	551,66
837,866	294,39
838,04	-111,8
838,213	201,25
838,387	382,41
838,56	297,89
838,734	-232,38
838,907	104,31
839,081	465,23
839,254	316,32
839,428	25,6
839,601	-135,44
839,775	428,18
839,948	462,23
840,122	-186,61
840,295	-56,12
840,468	420,27
840,642	296,49
840,815	-238,09
840,988	-248,2
841,162	318,02
841,335	328,13
841,508	55,04
841,682	-130,93
841,855	593,72
842,028	401,44
842,201	-172,69
842,374	-191,32
842,548	339,65
842,721	336,25
842,894	-266,73
843,067	-157,37
843,24	585,31
843,413	433,89
843,586	-124,12
843,759	-61,33
843,932	411,76
844,105	350,07
844,278	-92,78
844,451	272,75
844,624	454,52
844,797	262,44
844,97	-261,42
845,143	-29,08
845,316	477,65
845,489	523,92
845,662	-181,91
845,835	-178,2
846,008	202,45
846,18	282,47
846,353	-180,9
846,526	118,33
846,699	368,09
846,872	363,08
847,044	-316,1
847,217	-462,81
847,39	434,19
847,563	261,14
847,735	-176,6
847,908	-238,59
848,081	586,51
848,253	295,99
848,426	-462,91
848,598	-144,25
848,771	637,28
848,944	174,11
849,116	-396,52
849,289	-291,26
849,461	220,68
849,634	587,01
849,806	-250,4
849,979	-434,07
850,151	230,59
850,324	377,41
850,496	-260,62
850,668	-340,54
850,841	555,26
851,013	303,4
851,186	-401,92
851,358	-318,6
851,53	371,2
851,703	148,57
851,875	-311,69
852,047	-374,89
852,219	1543,7
852,392	389,12
852,564	-172,69
852,736	-459,61
852,908	181,12
853,081	515,21
853,253	-288,56
853,425	-390,11
853,597	396,43
853,769	295,79
853,941	-415,84
854,113	-285,46
854,285	478,25
854,457	364,99
854,63	-249,2
854,802	-259,72
854,974	315,92
855,146	529,13
855,318	-272,14
855,489	-163,48
855,661	135,76
855,833	226,49
856,005	-7,05
856,177	-183,61
856,349	281,77
856,521	382,51
856,693	-342,04
856,865	-354,96
857,036	204,55
857,208	198,35
857,38	-298,67
857,552	-198,13
857,723	313,71
857,895	270,25
858,067	-447,29
858,239	-435,97
858,41	369,49
858,582	547,25
858,754	-441,98
858,925	-372,58
859,097	437,69
859,268	185,63
859,44	-354,05
859,612	-360,86
859,783	439,6
859,955	318,52
860,126	-453,6
860,298	-393,31
860,469	474,35
860,641	276,86
860,812	-371,98
860,983	-510,58
861,155	318,02
861,326	426,58
861,498	-292,17
861,669	-432,97
861,84	227,09
862,012	474,85
862,183	-327,12
862,354	-407,13
862,526	411,15
862,697	334,84
862,868	-304,68
863,039	-337,73
863,211	312,21
863,382	320,72
863,553	-389,91
863,724	-349,45
863,895	196,54
864,066	85,38
864,238	-293,57
864,409	-314,6
864,58	442,1
864,751	603,33
864,922	-299,88
865,093	-306,89
865,264	315,92
865,435	142,87
865,606	-356,26
865,777	-464,82
865,948	329,84
866,119	290,08
866,29	-173,89
866,461	-445,19
866,632	502,39
866,802	434,69
866,973	-268,73
867,144	-108,6
867,315	669,63
867,486	472,94
867,657	-369,78
867,827	-308,19
867,998	241,91
868,169	308,71
868,34	-228,47
868,51	65,15
868,681	375,9
868,852	491,07
869,022	-204,04
869,193	-159,47
869,364	359,68
869,534	416,86
869,705	-233,98
869,875	-339,53
870,046	246,32
870,217	249,82
870,387	-395,01
870,558	-129,73
870,728	347,46
870,899	258,23
871,069	-274,84
871,239	-386,3
871,41	215,87
871,58	216,57
871,751	-487,95
871,921	-258,62
872,091	397,94
872,262	668,23
872,432	-424,56
872,602	-444,99
872,773	226,89
872,943	276,06
873,113	-399,42
873,284	-190,82
873,454	602,03
873,624	514
873,794	-365,67
873,964	-247,1
874,135	249,22
874,305	313,11
874,475	-261,32
874,645	-429,06
874,815	419,07
874,985	471,64
875,155	-496,56
875,325	-467,02
875,495	379,51
875,665	816,44
875,835	-263,42
876,005	-253,01
876,175	371,1
876,345	231,99
876,515	-416,14
876,685	-348,35
876,855	398,94
877,025	374
877,195	-614,43
877,365	-443,68
877,534	397,84
877,704	356,68
877,874	-452,5
878,044	-186,81
878,214	476,35
878,383	309,81
878,553	-436,67
878,723	-253,01
878,892	358,98
879,062	173,61
879,232	-301,48
879,401	-227,37
879,571	441
879,741	491,97
879,91	-102,69
880,08	-225,47
880,249	336,55
880,419	376,2
880,589	-314,6
880,758	-205,04
880,928	238,9
881,097	334,14
881,267	-492,66
881,436	-314
881,605	264,94
881,775	328,53
881,944	-524,3
882,114	-117,71
882,283	219,28
882,452	438,09
882,622	-327,72
882,791	-545,53
882,96	536,14
883,13	580,2
883,299	-450,59
883,468	-385
883,637	245,51
883,807	385,32
883,976	-444,49
884,145	-518,49
884,314	146,87
884,483	321,92
884,652	-384,9
884,822	-472,43
884,991	315,32
885,16	352,07
885,329	-245,1
885,498	-503,67
885,667	362,18
885,836	256,73
886,005	-225,07
886,174	-124,22
886,343	277,46
886,512	318,42
886,681	-368,78
886,85	-311,89
887,019	281,77
887,187	414,46
887,356	-179,2
887,525	97,2
887,694	322,63
887,863	269,85
888,032	-465,52
888,2	-330,82
888,369	370,7
888,538	404,44
888,707	-379,39
888,875	-442,98
889,044	221,38
889,213	221,58
889,381	-400,22
889,55	-384,9
889,719	398,54
889,887	339,35
890,056	-488,45
890,224	-327,22
890,393	468,94
890,562	164,4
890,73	-279,35
890,899	-393,91
891,067	357,38
891,236	413,76
891,404	-306,59
891,573	-418,75
891,741	413,56
891,909	359,68
892,078	-343,44
892,246	-191,12
892,415	547,05
892,583	545,45
892,751	-498,96
892,92	-340,54
893,088	376,2
893,256	286,97
893,424	-292,67
893,593	26,3
893,761	266,64
893,929	483,16
894,097	-461,11
894,265	-372,28
894,434	418,16
894,602	486,36
894,77	-257,92
894,938	-347,65
895,106	308
895,274	362,28
895,442	-423,96
895,61	-427,36
895,778	312,61
895,946	518,51
896,114	-254,31
896,282	-434,87
896,45	169,8
896,618	399,34
896,786	-209,45
896,954	-457,1
897,122	684,75
897,29	688,76
897,458	-423,56
897,625	-419,75
897,793	209,16
897,961	361,98
898,129	-249,5
898,297	-464,31
898,464	234
898,632	468,94
898,8	-404,43
898,968	-513,59
899,135	350,87
899,303	66,35
899,471	-347,95
899,638	-256,11
899,806	284,67
899,973	246,52
900,141	-427,16
900,309	-479,14
900,476	350,47
900,644	169,3
900,811	-188,41
900,979	-355,66
901,146	238,8
901,314	373,6
901,481	-376,19
901,649	-373,28
901,816	305,9
901,983	379,01
902,151	-332,32
