Data from Subt4__23__14-54-52-070.txt Node

Date: Thu Feb 19 14:54:52 CET 2026
User: Versuch 234
Spectrometer: USB4F05580
Trigger mode: 4
Integration Time (sec): 4,000000E-3
Scans to average: 20
Electric dark correction enabled: true
Nonlinearity correction enabled: false
Boxcar width: 0
XAxis mode: Wavelengths
Number of Pixels in Spectrum: 3648
>>>>>Begin Spectral Data<<<<<
197,409	96,78
197,623	96,78
197,837	96,78
198,051	170,69
198,265	117,71
198,479	-74,27
198,693	-16,48
198,907	-36,71
199,122	16,17
199,336	-17,88
199,55	20,37
199,763	36,39
199,977	3,85
200,191	64,94
200,405	21,37
200,619	16,27
200,833	-34,01
201,047	23,48
201,261	69,64
201,475	57,63
201,689	31,39
201,903	21,17
202,117	-26
202,331	-29,3
202,545	-7,87
202,758	30,99
202,972	-72,16
203,186	-89,59
203,4	43,5
203,614	21,57
203,828	-42,22
204,041	14,56
204,255	12,56
204,469	6,75
204,683	32,29
204,897	-9,87
205,11	27,98
205,324	-16,48
205,538	-22,39
205,752	-0,66
205,965	75,65
206,179	30,79
206,393	-98
206,606	-24,79
206,82	7,65
207,034	14,26
207,248	0,14
207,461	-6,87
207,675	29,88
207,889	13,46
208,102	32,29
208,316	-35,51
208,529	-20,39
208,743	-1,26
208,957	13,06
209,17	-42,02
209,384	37,7
209,597	-15,78
209,811	28,18
210,025	26,78
210,238	1,84
210,452	10,06
210,665	35,29
210,879	14,36
211,092	-31,2
211,306	-7,67
211,519	-39,12
211,733	2,45
211,946	65,84
212,16	72,75
212,373	-2,66
212,587	-10,77
212,8	-33,81
213,014	3,05
213,227	42,6
213,44	8,45
213,654	78,36
213,867	87,47
214,081	43,71
214,294	-18,69
214,507	26,18
214,721	38,2
214,934	28,98
215,148	-1,96
215,361	116,31
215,574	35,09
215,788	-108,32
216,001	66,74
216,214	-14,58
216,428	24,48
216,641	10,66
216,854	7,65
217,067	14,66
217,281	28,38
217,494	41,1
217,707	53,32
217,92	-59,34
218,134	41,3
218,347	91,27
218,56	53,32
218,773	-33,51
218,986	55,22
219,2	14,56
219,413	4,45
219,626	-32,21
219,839	68,04
220,052	53,72
220,265	-21,99
220,479	37,2
220,692	24,38
220,905	-23,19
221,118	36,09
221,331	-40,72
221,544	4,35
221,757	29,28
221,97	37,8
222,183	-67,86
222,396	38,7
222,609	-2,66
222,822	-64,75
223,035	18,77
223,249	3,85
223,462	13,66
223,675	-57,14
223,887	17,77
224,1	41
224,313	55,22
224,526	41,4
224,739	-4,97
224,952	63,43
225,165	-12,68
225,378	-20,29
225,591	104,29
225,804	-17,08
226,017	47,71
226,23	-38,21
226,443	10,26
226,656	-20,49
226,868	-41,32
227,081	55,02
227,294	-24,19
227,507	10,46
227,72	-36,31
227,933	54,12
228,145	8,45
228,358	-12,58
228,571	28,88
228,784	-29
228,997	-65,65
229,209	22,77
229,422	-3,76
229,635	36,29
229,848	14,36
230,06	-65,55
230,273	-63,05
230,486	16,67
230,698	-61,25
230,911	2,35
231,124	-18,89
231,336	-35,71
231,549	15,56
231,762	52,52
231,974	-52,73
232,187	-55,54
232,4	51,52
232,612	-27,6
232,825	33,09
233,038	22,27
233,25	13,06
233,463	14,46
233,675	-10,27
233,888	24,48
234,1	86,97
234,313	26,18
234,526	43,1
234,738	-27
234,951	-23,09
235,163	-53,54
235,376	8,45
235,588	-86,08
235,801	-31,5
236,013	-71,36
236,226	37,5
236,438	3,55
236,65	48,71
236,863	-37,61
237,075	88,57
237,288	-53,94
237,5	-54,14
237,713	-31
237,925	-53,94
238,137	-6,67
238,35	18,47
238,562	-10,07
238,774	72,25
238,987	118,41
239,199	14,06
239,411	-2,36
239,624	49,41
239,836	27,08
240,048	-13,28
240,261	66,34
240,473	-16,88
240,685	11,86
240,897	-28,6
241,11	-1,06
241,322	37,7
241,534	-3,96
241,746	-3,16
241,959	77,65
242,171	-10,67
242,383	-10,77
242,595	-58,24
242,807	-8,47
243,02	18,77
243,232	33,89
243,444	-31,7
243,656	55,32
243,868	17,87
244,08	-69,86
244,293	-83,28
244,505	0,64
244,717	2,95
244,929	-22,89
245,141	-40,92
245,353	-15,98
245,565	28,38
245,777	-16,28
245,989	-13,88
246,201	-58,64
246,413	60,43
246,625	-36,91
246,837	-20,99
247,049	6,35
247,261	69,84
247,473	8,55
247,685	11,26
247,897	36,09
248,109	-50,33
248,321	34,79
248,533	-103,51
248,745	-26
248,957	9,46
249,169	-40,42
249,381	42,4
249,593	-13,88
249,804	21,37
250,016	17,17
250,228	-30,5
250,44	42,5
250,652	-15,48
250,864	30,39
251,075	-20,39
251,287	-30,9
251,499	70,74
251,711	19,17
251,923	0,14
252,134	1,54
252,346	-10,67
252,558	23,18
252,77	-21,89
252,982	-23,49
253,193	-0,26
253,405	-5,67
253,617	34,59
253,828	-57,64
254,04	73,55
254,252	83,66
254,463	14,36
254,675	-8,97
254,887	-71,16
255,098	1,04
255,31	-40,02
255,522	57,12
255,733	-1,16
255,945	62,03
256,157	-9,57
256,368	-15,18
256,58	33,39
256,791	-4,56
257,003	60,63
257,214	40,4
257,426	32,19
257,637	10,06
257,849	8,65
258,061	44,81
258,272	38,3
258,484	47,01
258,695	11,46
258,907	24,18
259,118	44,31
259,329	-61,45
259,541	19,67
259,752	40,5
259,964	70,94
260,175	-21,09
260,387	-69,96
260,598	22,57
260,809	10,46
261,021	-1,26
261,232	5,25
261,444	-5,87
261,655	32,69
261,866	-33,31
262,078	26,18
262,289	-0,86
262,5	8,35
262,712	-20,39
262,923	-14,78
263,134	-58,04
263,345	45,81
263,557	-69,16
263,768	-54,74
263,979	-45,12
264,191	-24,69
264,402	-70,96
264,613	61,93
264,824	-20,19
265,035	-27,4
265,247	68,14
265,458	-71,96
265,669	-27,2
265,88	23,98
266,091	-13,98
266,302	12,86
266,514	-39,72
266,725	-21,69
266,936	-12,58
267,147	-57,24
267,358	-31,8
267,569	69,04
267,78	36,49
267,991	-24,39
268,202	54,42
268,414	20,87
268,625	61,33
268,836	-28,4
269,047	69,74
269,258	-43,22
269,469	-25,19
269,68	11,86
269,891	-18,59
270,102	36,8
270,313	-1,16
270,524	14,36
270,735	6,85
270,945	10,46
271,156	68,84
271,367	23,18
271,578	51,42
271,789	-52,53
272	63,13
272,211	23,58
272,422	-23,19
272,633	58,53
272,844	-50,03
273,054	-34,31
273,265	17,77
273,476	-19,89
273,687	-22,69
273,898	-10,67
274,109	9,86
274,319	-22,49
274,53	71,24
274,741	46,01
274,952	-0,86
275,162	39,1
275,373	8,45
275,584	-18,69
275,795	-39,42
276,005	-25,19
276,216	-9,67
276,427	22,07
276,637	-3,06
276,848	3,85
277,059	-69,26
277,269	-52,53
277,48	-10,37
277,691	32,89
277,901	-25,09
278,112	-20,39
278,323	-30
278,533	54,42
278,744	14,86
278,954	-40,92
279,165	8,25
279,376	-7,47
279,586	-34,01
279,797	6,15
280,007	-19,69
280,218	26,38
280,428	67,24
280,639	62,73
280,849	0,34
281,06	-19,09
281,27	-11,88
281,481	-43,52
281,691	10,46
281,902	-24,79
282,112	2,45
282,322	80,36
282,533	-12,78
282,743	32,29
282,954	20,77
283,164	-26,7
283,374	39,7
283,585	50,62
283,795	-63,75
284,006	16,47
284,216	12,46
284,426	-17,68
284,637	-63,75
284,847	-39,42
285,057	47,61
285,268	26,98
285,478	0,84
285,688	50,72
285,898	-31,3
286,109	2,85
286,319	-64,15
286,529	33,19
286,739	-24,99
286,95	53,82
287,16	14,26
287,37	51,42
287,58	-27,2
287,79	41,8
288,001	40,9
288,211	22,07
288,421	36,39
288,631	30,09
288,841	-6,97
289,051	-10,57
289,261	32,49
289,471	-92,39
289,682	8,75
289,892	29,99
290,102	-20,09
290,312	-29
290,522	-0,06
290,732	38,3
290,942	44,01
291,152	10,16
291,362	28,38
291,572	-73,56
291,782	18,07
291,992	91,87
292,202	2,14
292,412	-79,67
292,622	14,66
292,832	39,1
293,042	-4,97
293,252	21,67
293,462	13,86
293,672	-14,98
293,881	14,46
294,091	-0,26
294,301	-12,78
294,511	26,58
294,721	64,84
294,931	69,94
295,141	-12,38
295,35	39,2
295,56	-36,21
295,77	1,94
295,98	-63,75
296,19	59,23
296,4	10,66
296,609	-38,91
296,819	35,29
297,029	43,91
297,239	12,66
297,448	60,93
297,658	0,04
297,868	44,11
298,077	-13,98
298,287	-5,27
298,497	7,35
298,706	46,11
298,916	-46,03
299,126	29,58
299,335	27,88
299,545	-19,69
299,755	-31,5
299,964	23,78
300,174	114,71
300,384	93,28
300,593	49,11
300,803	-9,97
301,012	18,07
301,222	47,71
301,431	-22,89
301,641	0,94
301,851	36,59
302,06	34,59
302,27	-10,77
302,479	28,58
302,689	19,17
302,898	-35,71
303,107	22,97
303,317	37,7
303,526	65,74
303,736	76,35
303,945	30,09
304,155	-18,89
304,364	71,35
304,574	29,48
304,783	-24,69
304,992	26,68
305,202	-25,7
305,411	1,24
305,62	32,79
305,83	79,86
306,039	0,74
306,248	49,01
306,458	-48,83
306,667	-64,75
306,876	40,4
307,086	4,25
307,295	-5,97
307,504	19,77
307,713	6,55
307,923	-105,51
308,132	39
308,341	-38,81
308,55	-5,77
308,76	-31,6
308,969	24,68
309,178	43,2
309,387	57,32
309,596	-35,51
309,805	15,16
310,015	2,95
310,224	-40,92
310,433	-48,03
310,642	-26,8
310,851	-6,07
311,06	6,65
311,269	11,46
311,478	-13,98
311,687	-117,43
311,896	16,67
312,106	43,6
312,315	45,71
312,524	109,6
312,733	145,15
312,942	-7,07
313,151	83,76
313,36	-7,27
313,569	23,58
313,778	-4,06
313,987	-53,94
314,195	51,92
314,404	24,18
314,613	-14,18
314,822	39,8
315,031	-44,02
315,24	-11,78
315,449	102,39
315,658	-21,99
315,867	-28,6
316,076	-51,93
316,284	30,49
316,493	58,13
316,702	43,6
316,911	28,78
317,12	-4,16
317,329	77,35
317,537	83,46
317,746	-98,9
317,955	52,12
318,164	9,96
318,372	2,95
318,581	79,06
318,79	-24,59
318,999	-12,18
319,207	1,24
319,416	-87,79
319,625	8,05
319,833	19,17
320,042	67,34
320,251	4,95
320,459	-19,89
320,668	1,24
320,877	33,99
321,085	-101,61
321,294	-86,08
321,502	24,88
321,711	-40,72
321,92	15,46
322,128	-63,65
322,337	-30,2
322,545	66,34
322,754	14,26
322,962	51,52
323,171	-33,31
323,379	-24,79
323,588	9,46
323,796	-32,21
324,005	22,37
324,213	45,11
324,422	64,94
324,63	-60,75
324,839	-39,42
325,047	-17,98
325,256	5,55
325,464	-2,06
325,672	48,21
325,881	-31,6
326,089	29,18
326,297	0,64
326,506	-64,85
326,714	60,43
326,923	23,68
327,131	8,05
327,339	15,56
327,548	-21,49
327,756	-36,91
327,964	-37,61
328,172	-25,19
328,381	25,08
328,589	25,78
328,797	-33,41
329,005	-22,89
329,214	-62,85
329,422	34,19
329,63	-36,01
329,838	116,21
330,046	-56,14
330,255	15,06
330,463	15,66
330,671	-22,79
330,879	86,87
331,087	12,86
331,295	20,27
331,503	9,46
331,712	-26,6
331,92	21,67
332,128	45,61
332,336	32,39
332,544	-68,46
332,752	-9,77
332,96	-14,78
333,168	-6,57
333,376	-128,54
333,584	-12,48
333,792	28,78
334	23,88
334,208	-24,69
334,416	53,62
334,624	6,95
334,832	-16,38
335,04	-4,77
335,248	-14,48
335,456	5,65
335,664	-51,83
335,872	-20,19
336,08	-89,69
336,287	-40,32
336,495	70,94
336,703	14,26
336,911	55,72
337,119	-15,68
337,327	29,88
337,535	14,26
337,742	-31,4
337,95	43,2
338,158	5,75
338,366	-61,55
338,573	-14,98
338,781	8,75
338,989	81,36
339,197	50,51
339,404	-29
339,612	1,94
339,82	-60,35
340,028	-16,98
340,235	65,04
340,443	12,46
340,651	33,09
340,858	-116,03
341,066	-20,29
341,274	4,95
341,481	78,05
341,689	48,21
341,896	-14,78
342,104	65,44
342,312	21,17
342,519	50,51
342,727	13,66
342,934	3,25
343,142	4,05
343,349	-36,81
343,557	106,7
343,765	-52,13
343,972	54,32
344,18	-4,16
344,387	40,6
344,594	36,69
344,802	118,71
345,009	-15,28
345,217	0,64
345,424	81,86
345,632	-35,51
345,839	23,98
346,047	19,07
346,254	-18,49
346,461	22,47
346,669	-7,27
346,876	25,58
347,083	24,68
347,291	29,58
347,498	30,19
347,705	55,92
347,913	-25,8
348,12	2,35
348,327	14,26
348,535	-36,21
348,742	22,87
348,949	-24,99
349,156	-25,6
349,364	-8,97
349,571	38,4
349,778	26,78
349,985	-54,94
350,192	24,28
350,4	26,88
350,607	64,74
350,814	53,62
351,021	-22,59
351,228	17,27
351,435	54,42
351,643	-2,66
351,85	26,08
352,057	69,24
352,264	66,74
352,471	18,87
352,678	59,73
352,885	72,75
353,092	2,35
353,299	-3,36
353,506	22,77
353,713	42,5
353,92	-37,01
354,127	21,47
354,334	5,75
354,541	-15,28
354,748	25,78
354,955	72,95
355,162	63,83
355,369	25,98
355,576	35,99
355,783	66,44
355,99	5,75
356,197	-25,19
356,404	-4,87
356,611	2,65
356,817	-35,91
357,024	22,07
357,231	58,63
357,438	3,75
357,645	17,77
357,852	34,39
358,058	18,57
358,265	25,38
358,472	20,67
358,679	12,36
358,885	5,75
359,092	61,23
359,299	-64,05
359,506	-25,5
359,712	-15,88
359,919	-3,06
360,126	-39,01
360,333	-45,92
360,539	23,08
360,746	4,35
360,953	17,97
361,159	-62,85
361,366	-56,54
361,572	30,89
361,779	6,65
361,986	5,05
362,192	-24,89
362,399	50,41
362,605	-46,73
362,812	-10,97
363,019	-19,69
363,225	-19,69
363,432	56,82
363,638	-41,52
363,845	-1,56
364,051	69,24
364,258	-0,96
364,464	69,24
364,671	-30
364,877	73,65
365,084	64,94
365,29	-24,09
365,496	87,37
365,703	-30,3
365,909	-27,2
366,116	56,92
366,322	-9,97
366,528	-20,99
366,735	-0,56
366,941	-12,28
367,147	26,68
367,354	78,96
367,56	28,18
367,766	38,6
367,973	54,82
368,179	-6,07
368,385	-9,37
368,592	60,33
368,798	51,12
369,004	7,65
369,21	19,07
369,417	62,33
369,623	-51,63
369,829	42,5
370,035	33,29
370,241	44,01
370,448	-2,16
370,654	19,27
370,86	-13,28
371,066	48,31
371,272	19,07
371,478	35,69
371,684	-17,68
371,891	55,82
372,097	22,97
372,303	-58,44
372,509	19,27
372,715	-8,87
372,921	35,09
373,127	14,96
373,333	58,13
373,539	-10,97
373,745	37,8
373,951	55,82
374,157	-13,58
374,363	31,79
374,569	-37,51
374,775	7,85
374,981	-15,98
375,187	-54,04
375,393	6,95
375,599	45,61
375,804	10,96
376,01	19,77
376,216	31,59
376,422	10,16
376,628	21,47
376,834	71,14
377,04	30,19
377,246	16,67
377,451	-23,59
377,657	-29,1
377,863	40,8
378,069	-63,55
378,274	38,5
378,48	46,71
378,686	52,72
378,892	28,38
379,097	13,76
379,303	48,41
379,509	7,45
379,715	54,52
379,92	59,93
380,126	57,53
380,332	-64,65
380,537	-6,67
380,743	111,3
380,949	-0,46
381,154	-19,79
381,36	-3,36
381,565	24,08
381,771	63,33
381,977	3,25
382,182	-1,16
382,388	32,99
382,593	21,27
382,799	-7,47
383,004	-36,81
383,21	35,59
383,415	-30,7
383,621	-21,29
383,826	-5,97
384,032	13,96
384,237	-31,9
384,443	29,88
384,648	-51,23
384,854	68,84
385,059	-38,31
385,265	-45,82
385,47	-27,8
385,675	20,57
385,881	38,3
386,086	-32,31
386,291	-20,39
386,497	28,68
386,702	-11,88
386,907	-18,99
387,113	-19,49
387,318	49,11
387,523	-36,01
387,729	0,44
387,934	42,1
388,139	55,62
388,344	18,57
388,55	38,6
388,755	-35,21
388,96	51,22
389,165	101,49
389,371	66,14
389,576	-16,58
389,781	125,12
389,986	-40,22
390,191	37,4
390,396	-11,58
390,601	36,59
390,807	7,95
391,012	37,1
391,217	20,67
391,422	27,98
391,627	32,79
391,832	-80,07
392,037	81,16
392,242	126,02
392,447	30,79
392,652	-30,9
392,857	39
393,062	-22,19
393,267	48,41
393,472	-4,87
393,677	-37,01
393,882	13,76
394,087	39,6
394,292	58,53
394,497	28,78
394,702	23,48
394,907	66,94
395,112	-3,96
395,317	12,86
395,521	14,36
395,726	-11,47
395,931	-8,17
396,136	56,22
396,341	-91,89
396,546	21,97
396,75	-19,19
396,955	-13,88
397,16	-56,54
397,365	-1,76
397,57	8,25
397,774	-8,97
397,979	20,17
398,184	-46,13
398,389	81,26
398,593	54,42
398,798	-41,02
399,003	-3,66
399,207	0,74
399,412	-12,18
399,617	-30,8
399,821	-31,3
400,026	120,02
400,231	66,44
400,435	13,06
400,64	-22,79
400,844	-33,31
401,049	19,87
401,254	1,24
401,458	-11,98
401,663	-39,62
401,867	25,08
402,072	20,67
402,276	8,55
402,481	-17,38
402,685	39
402,89	3,05
403,094	62,73
403,299	30,29
403,503	41,7
403,708	-71,76
403,912	-37,51
404,116	-31,8
404,321	96,68
404,525	5,45
404,73	60,73
404,934	22,37
405,138	-1,56
405,343	112,4
405,547	31,19
405,751	0,54
405,956	-1,56
406,16	12,86
406,364	41,5
406,569	32,29
406,773	-37,21
406,977	-48,23
407,181	-82,28
407,386	47,21
407,59	-35,31
407,794	-20,79
407,998	-23,49
408,202	-21,19
408,407	10,96
408,611	-32,31
408,815	24,88
409,019	-25,4
409,223	63,23
409,427	5,15
409,632	90,17
409,836	24,78
410,04	-25,9
410,244	-11,58
410,448	-17,38
410,652	67,64
410,856	-63,35
411,06	20,27
411,264	34,69
411,468	-2,26
411,672	-6,27
411,876	81,96
412,08	18,67
412,284	-11,27
412,488	7,25
412,692	65,84
412,896	-15,08
413,1	23,28
413,304	-12,08
413,508	32,39
413,712	15,56
413,916	6,25
414,12	52,82
414,323	30,09
414,527	26,48
414,731	-46,23
414,935	69,24
415,139	79,46
415,343	50,82
415,546	54,52
415,75	-6,37
415,954	71,35
416,158	-50,93
416,361	-25,4
416,565	-38,61
416,769	21,07
416,973	-1,96
417,176	30,09
417,38	-99
417,584	-73,36
417,788	62,63
417,991	26,78
418,195	-14,38
418,398	55,72
418,602	-25,4
418,806	-13,98
419,009	-12,08
419,213	74,45
419,417	39,2
419,62	3,55
419,824	65,64
420,027	-20,39
420,231	-41,62
420,434	-29,6
420,638	-18,69
420,841	55,52
421,045	17,47
421,248	24,58
421,452	8,65
421,655	-6,47
421,859	47,81
422,062	-22,09
422,266	42,7
422,469	3,35
422,673	8,85
422,876	-32,51
423,079	-26,9
423,283	8,35
423,486	10,36
423,689	-49,73
423,893	51,52
424,096	138,04
424,299	75,95
424,503	-15,98
424,706	-23,59
424,909	24,68
425,113	-7,07
425,316	18,37
425,519	82,26
425,722	70,84
425,926	-0,16
426,129	2,35
426,332	12,36
426,535	27,18
426,739	-18,99
426,942	-46,43
427,145	-26,5
427,348	9,26
427,551	1,64
427,754	23,08
427,957	2,65
428,161	-0,26
428,364	22,27
428,567	-57,14
428,77	-6,87
428,973	13,96
429,176	2,85
429,379	14,86
429,582	-72,66
429,785	25,48
429,988	-12,38
430,191	64,64
430,394	-34,61
430,597	-5,77
430,8	49,61
431,003	9,15
431,206	-25,3
431,409	-4,97
431,612	-48,83
431,815	55,62
432,018	69,14
432,221	-6,97
432,423	64,94
432,626	-58,54
432,829	39,2
433,032	112,5
433,235	57,22
433,438	-41,62
433,64	-60,65
433,843	80,66
434,046	40,6
434,249	14,96
434,452	22,97
434,654	-67,06
434,857	-29
435,06	-45,72
435,263	45,51
435,465	-15,68
435,668	-54,94
435,871	123,52
436,073	32,99
436,276	-7,47
436,479	-36,31
436,681	17,27
436,884	25,88
437,087	29,68
437,289	42
437,492	1,74
437,694	52,62
437,897	4,55
438,1	71,55
438,302	10,96
438,505	48,61
438,707	1,64
438,91	17,97
439,112	51,72
439,315	27,28
439,517	60,23
439,72	2,35
439,922	-27,1
440,125	-18,28
440,327	2,45
440,529	-7,97
440,732	-17,98
440,934	38,4
441,137	-9,97
441,339	-28,1
441,541	-66,35
441,744	49,61
441,946	-11,58
442,148	44,21
442,351	14,06
442,553	10,96
442,755	-30
442,958	-7,97
443,16	-21,09
443,362	-15,48
443,565	19,37
443,767	15,96
443,969	-50,43
444,171	46,21
444,373	37,1
444,576	-12,48
444,778	-8,37
444,98	-63,35
445,182	68,14
445,384	-44,52
445,586	47,31
445,789	36,29
445,991	22,77
446,193	53,52
446,395	-7,37
446,597	-12,48
446,799	59,33
447,001	4,05
447,203	-22,89
447,405	-24,19
447,607	31,79
447,809	49,91
448,011	-42,82
448,213	15,56
448,415	-74,17
448,617	57,12
448,819	-37,41
449,021	-68,96
449,223	91,77
449,425	77,65
449,627	39,7
449,829	-45,72
450,031	-9,17
450,233	53,62
450,435	70,34
450,636	-6,37
450,838	33,09
451,04	10,66
451,242	-1,06
451,444	-0,86
451,646	6,25
451,847	16,17
452,049	60,63
452,251	35,29
452,453	22,77
452,654	-5,77
452,856	43,6
453,058	20,67
453,26	-0,76
453,461	0,74
453,663	-58,14
453,865	7,75
454,066	-19,09
454,268	-1,76
454,47	61,03
454,671	32,99
454,873	-7,37
455,074	-48,93
455,276	-14,78
455,478	35,89
455,679	68,34
455,881	52,32
456,082	21,97
456,284	3,15
456,485	42,3
456,687	47,11
456,888	-37,51
457,09	0,94
457,291	54,12
457,493	-69,16
457,694	-2,86
457,896	-40,22
458,097	40,2
458,299	-11,07
458,5	8,35
458,701	-38,41
458,903	103,19
459,104	14,46
459,306	56,02
459,507	49,61
459,708	37,4
459,91	64,13
460,111	7,45
460,312	-23,79
460,514	26,78
460,715	68,04
460,916	10,16
461,117	54,52
461,319	-33,21
461,52	-32,61
461,721	-16,98
461,922	-37,01
462,124	26,28
462,325	-8,17
462,526	-22,29
462,727	1,64
462,928	66,94
463,129	54,82
463,331	19,97
463,532	-12,68
463,733	3,05
463,934	0,94
464,135	9,56
464,336	13,06
464,537	1,24
464,738	-4,06
464,939	-30
465,14	8,15
465,341	70,24
465,542	15,16
465,743	51,02
465,944	51,22
466,145	5,85
466,346	-14,78
466,547	94,48
466,748	-58,74
466,949	4,15
467,15	20,57
467,351	-1,16
467,552	12,26
467,753	17,37
467,953	4,35
468,154	-0,26
468,355	45,21
468,556	-67,26
468,757	-26,9
468,958	-63,95
469,158	-10,57
469,359	37,5
469,56	-6,17
469,761	66,84
469,962	52,72
470,162	-4,26
470,363	-34,11
470,564	48,81
470,764	-14,58
470,965	11,16
471,166	31,09
471,366	-16,38
471,567	-172,01
471,768	-14,68
471,968	-9,77
472,169	22,47
472,37	22,07
472,57	27,58
472,771	28,38
472,971	-46,73
473,172	-24,19
473,373	-2,26
473,573	0,14
473,774	60,43
473,974	77,05
474,175	-3,56
474,375	-42,72
474,576	67,24
474,776	3,75
474,977	29,78
475,177	80,36
475,377	-23,99
475,578	-64,95
475,778	11,16
475,979	31,59
476,179	-19,09
476,379	42,4
476,58	11,66
476,78	50,31
476,981	51,02
477,181	10,36
477,381	30,79
477,582	18,37
477,782	-7,87
477,982	39,4
478,182	36,9
478,383	105,29
478,583	65,74
478,783	-33,81
478,983	32,09
479,184	54,72
479,384	-73,06
479,584	17,77
479,784	69,04
479,984	131,03
480,184	-68,66
480,385	5,25
480,585	76,75
480,785	19,27
480,985	-17,78
481,185	46,51
481,385	64,84
481,585	91,47
481,785	80,56
481,985	-28,9
482,185	26,78
482,385	63,03
482,585	5,55
482,785	42,3
482,985	37,4
483,185	80,96
483,385	92,18
483,585	18,37
483,785	51,42
483,985	46,21
484,185	66,74
484,385	10,56
484,585	8,35
484,785	38
484,985	55,02
485,185	56,42
485,384	20,07
485,584	74,45
485,784	40,5
485,984	-0,76
486,184	25,88
486,383	2,85
486,583	7,05
486,783	-25,5
486,983	-33,61
487,183	5,75
487,382	58,23
487,582	-26,9
487,782	35,59
487,981	92,78
488,181	-3,26
488,381	-18,08
488,58	-11,88
488,78	30,79
488,98	2,65
489,179	-42,32
489,379	-24,59
489,579	14,26
489,778	46,61
489,978	42,1
490,177	-118,93
490,377	-15,28
490,576	-34,01
490,776	15,16
490,975	-4,97
491,175	42,6
491,374	-26,5
491,574	40,4
491,773	45,21
491,973	32,19
492,172	35,69
492,372	45,61
492,571	11,76
492,771	21,77
492,97	50,21
493,169	30,19
493,369	38
493,568	-12,88
493,767	7,65
493,967	78,66
494,166	5,75
494,365	85,77
494,565	-29
494,764	-5,87
494,963	-53,44
495,163	62,53
495,362	44,91
495,561	43,2
495,76	129,13
495,959	-49,83
496,159	35,59
496,358	24,08
496,557	34,09
496,756	-20,29
496,955	-89,69
497,155	86,77
497,354	-20,99
497,553	70,64
497,752	8,45
497,951	-13,98
498,15	56,62
498,349	8,75
498,548	15,86
498,747	26,78
498,946	-21,99
499,145	0,84
499,344	55,72
499,543	44,11
499,742	15,56
499,941	41,8
500,14	24,18
500,339	-62,35
500,538	27,98
500,737	23,28
500,936	46,71
501,135	22,67
501,334	59,53
501,533	68,84
501,732	70,44
501,931	-15,28
502,129	-19,79
502,328	-49,03
502,527	-24,09
502,726	-16,88
502,925	16,87
503,123	15,96
503,322	-19,39
503,521	51,62
503,72	22,77
503,919	16,27
504,117	58,93
504,316	-24,79
504,515	-6,77
504,713	-42,92
504,912	-0,56
505,111	38,2
505,309	11,56
505,508	-1,06
505,707	36,9
505,905	-26,7
506,104	32,79
506,302	-20,59
506,501	-32,61
506,7	-7,57
506,898	-2,16
507,097	-4,56
507,295	-58,04
507,494	-25,9
507,692	27,78
507,891	90,17
508,089	5,95
508,288	-63,35
508,486	-4,56
508,685	-63,75
508,883	46,51
509,082	17,77
509,28	98,68
509,478	4,35
509,677	12,06
509,875	99,89
510,073	45,51
510,272	43,91
510,47	28,88
510,669	34,99
510,867	25,58
511,065	69,04
511,263	35,09
511,462	73,15
511,66	41
511,858	-15,38
512,056	21,47
512,255	-34,31
512,453	-13,48
512,651	-37,01
512,849	72,15
513,048	74,85
513,246	63,73
513,444	67,34
513,642	55,22
513,84	4,85
514,038	-8,67
514,236	11,56
514,435	58,13
514,633	-65,25
514,831	7,25
515,029	-19,19
515,227	37,6
515,425	27,18
515,623	-21,79
515,821	22,07
516,019	15,26
516,217	-19,89
516,415	10,26
516,613	19,77
516,811	2,35
517,009	55,62
517,207	70,84
517,405	99,19
517,602	-1,36
517,8	46,11
517,998	28,58
518,196	32,89
518,394	98,08
518,592	16,06
518,79	-43,62
518,987	49,41
519,185	30,79
519,383	32,39
519,581	-40,42
519,779	48,81
519,976	15,26
520,174	35,79
520,372	-14,18
520,57	58,03
520,767	58,73
520,965	58,03
521,163	49,81
521,36	8,05
521,558	69,44
521,756	9,26
521,953	66,44
522,151	80,46
522,349	45,01
522,546	30,79
522,744	50,51
522,941	35,59
523,139	-18,28
523,336	39,4
523,534	104,69
523,731	-40,72
523,929	5,45
524,126	30,99
524,324	-38,31
524,521	-8,87
524,719	-18,89
524,916	18,17
525,114	36,69
525,311	90,07
525,509	-20,09
525,706	26,08
525,903	-39,01
526,101	88,97
526,298	26,78
526,496	42,7
526,693	15,36
526,89	111,3
527,088	81,86
527,285	-9,37
527,482	43,1
527,679	21,97
527,877	-45,82
528,074	-11,17
528,271	29,28
528,468	37,9
528,666	63,33
528,863	109,2
529,06	44,91
529,257	34,39
529,454	28,18
529,652	32,69
529,849	12,26
530,046	18,37
530,243	-16,38
530,44	5,55
530,637	170,59
530,834	8,75
531,031	-11,88
531,228	-16,08
531,425	59,93
531,622	74,25
531,819	26,58
532,016	97,98
532,213	85,06
532,41	21,87
532,607	-10,97
532,804	-28,8
533,001	43,71
533,198	38,6
533,395	29,28
533,592	57,73
533,789	52,42
533,986	45,01
534,183	36,29
534,38	13,36
534,576	69,64
534,773	44,31
534,97	109,9
535,167	41,8
535,364	72,25
535,561	86,07
535,757	11,66
535,954	78,66
536,151	96,98
536,348	76,95
536,544	-12,68
536,741	44,71
536,938	21,97
537,134	47,31
537,331	31,19
537,528	107,2
537,724	59,13
537,921	66,84
538,118	64,84
538,314	1,44
538,511	83,06
538,707	34,69
538,904	51,82
539,101	70,64
539,297	55,42
539,494	62,03
539,69	84,46
539,887	64,74
540,083	56,72
540,28	76,05
540,476	24,28
540,673	6,05
540,869	-13,68
541,066	63,63
541,262	94,88
541,458	95,88
541,655	85,27
541,851	150,86
542,048	-3,66
542,244	24,48
542,44	38
542,637	34,99
542,833	56,52
543,029	44,31
543,226	6,25
543,422	145,45
543,618	79,36
543,814	21,67
544,011	41,2
544,207	49,61
544,403	110,3
544,599	73,55
544,796	72,25
544,992	-6,77
545,188	22,87
545,384	59,83
545,58	128,63
545,776	58,23
545,972	77,85
546,169	55,62
546,365	37,5
546,561	110,2
546,757	21,47
546,953	73,55
547,149	81,76
547,345	89,27
547,541	42,8
547,737	30,69
547,933	115,11
548,129	65,04
548,325	108,7
548,521	79,36
548,717	72,05
548,913	73,85
549,109	203,34
549,305	76,55
549,501	105,8
549,697	86,27
549,892	125,12
550,088	113,51
550,284	69,24
550,48	71,14
550,676	140,75
550,872	140,65
551,067	112,5
551,263	131,23
551,459	142,55
551,655	160,87
551,85	75,05
552,046	193,42
552,242	105,8
552,438	44,21
552,633	143,55
552,829	104,29
553,025	192,52
553,22	69,74
553,416	-22,19
553,612	106
553,807	173,49
554,003	222,36
554,198	162,88
554,394	26,98
554,59	180,8
554,785	90,37
554,981	168,09
555,176	159,67
555,372	157,87
555,567	112,6
555,763	254,81
555,958	115,01
556,154	146,35
556,349	158,57
556,545	145,25
556,74	192,32
556,936	112,4
557,131	176,8
557,326	223,27
557,522	184,51
557,717	215,25
557,912	236,28
558,108	223,17
558,303	179,5
558,498	254,11
558,694	281,35
558,889	311,49
559,084	150,86
559,28	224,57
559,475	221,06
559,67	302,08
559,865	273,24
560,061	272,34
560,256	238,49
560,451	197,63
560,646	186,01
560,841	272,34
561,037	161,98
561,232	228,57
561,427	318,7
561,622	233,88
561,817	262,62
562,012	256,11
562,207	233,88
562,402	192,92
562,597	289,26
562,792	291,86
562,987	369,08
563,182	324,11
563,377	309,69
563,572	314,3
563,767	419,35
563,962	328,42
564,157	360,16
564,352	386,1
564,547	393,71
564,742	419,95
564,937	304,88
565,132	412,74
565,327	384,9
565,522	377,19
565,716	442,08
565,911	451,1
566,106	434,77
566,301	469,82
566,496	484,24
566,691	464,41
566,885	535,92
567,08	480,64
567,275	521,8
567,47	524,6
567,664	503,07
567,859	498,96
568,054	515,99
568,248	466,42
568,443	575,88
568,638	613,73
568,832	594,3
569,027	630,36
569,222	596,71
569,416	604,12
569,611	544,23
569,805	708,27
570	700,36
570,195	706,27
570,389	679,63
570,584	696,05
570,778	728,4
570,973	794,69
571,167	731,8
571,362	856,88
571,556	811,72
571,751	812,52
571,945	763,35
572,139	853,88
572,334	844,97
572,528	862,49
572,723	878,42
572,917	854,98
573,111	933,8
573,306	947,01
573,5	959,93
573,694	1025,23
573,889	1014,41
574,083	1074
574,277	1063,88
574,472	1155,32
574,666	1152,91
574,86	1233,03
575,054	1258,37
575,249	1189,07
575,443	1221,61
575,637	1283,8
575,831	1286,91
576,025	1382,65
576,219	1353,5
576,414	1425,01
576,608	1417,8
576,802	1386,25
576,996	1499,92
577,19	1501,92
577,384	1598,66
577,578	1494,21
577,772	1543,38
577,966	1779,32
578,16	1674,87
578,354	1695,2
578,548	1681,88
578,742	1764,4
578,936	1795,44
579,13	1783,83
579,324	1921,03
579,518	1910,81
579,712	1960,48
579,906	1962,89
580,1	2043,6
580,294	2086,47
580,488	2048,31
580,682	2219,66
580,875	2247,7
581,069	2256,71
581,263	2270,73
581,457	2476,63
581,651	2423,86
581,845	2468,22
582,038	2547,63
582,232	2603,92
582,426	2612,13
582,62	2697,15
582,813	2646,98
583,007	2763,85
583,201	2791,19
583,394	2917,47
583,588	2985,07
583,782	3030,03
583,975	3143,5
584,169	3195,97
584,363	3276,69
584,556	3344,99
584,75	3317,45
584,943	3418,6
585,137	3495,21
585,33	3556,7
585,524	3694,7
585,718	3825,79
585,911	3815,67
586,105	3873,16
586,298	3934,75
586,491	4033,89
586,685	4075,55
586,878	4263,72
587,072	4296,57
587,265	4417,65
587,459	4439,58
587,652	4604,42
587,845	4599,01
588,039	4794,29
588,232	4853,58
588,426	4906,15
588,619	4923,38
588,812	5050,76
589,005	5269,58
589,199	5396,56
589,392	5366,62
589,585	5542,48
589,779	5638,32
589,972	5897,69
590,165	5933,44
590,358	6050,01
590,551	6206,54
590,745	6356,46
590,938	6496,96
591,131	6646,68
591,324	6473,83
591,517	6948,41
591,71	7049,76
591,904	7290,61
592,097	7345,09
592,29	7636,21
592,483	7699,2
592,676	7839,31
592,869	7997,64
593,062	8366,07
593,255	8340,23
593,448	8601,91
593,641	8864,19
593,834	9128,47
594,027	9158,92
594,22	9579,43
594,413	9592,05
594,606	9922,22
594,799	10083,06
594,992	10363,26
595,184	10462,31
595,377	10845,86
595,57	10967,64
595,763	11347,69
595,956	11492,8
596,149	11916,42
596,341	12201,63
596,534	12332,42
596,727	12616,63
596,92	12953,82
597,113	13090,82
597,305	13637,11
597,498	13801,95
597,691	14302,67
597,883	14468,82
598,076	14751,43
598,269	15121,76
598,462	15660,74
598,654	15890,18
598,847	16288,45
599,039	16661,79
599,232	17170,23
599,425	17319,15
599,617	17684,58
599,81	18167,28
600,002	18690,54
600,195	18672,31
600,387	19634,8
600,58	19693,99
600,772	20500,06
600,965	20583,78
601,157	21445,13
601,35	21934,14
601,542	22636,56
601,735	23027,22
601,927	23947,36
602,12	23850,01
602,312	24856,37
602,504	24989,67
602,697	25602,25
602,889	26165,67
603,082	26823,32
603,274	27257,95
603,466	28077,54
603,659	27998,93
603,851	28878,6
604,043	29134,38
604,235	30211,24
604,428	30011,25
604,62	31240,93
604,812	31463,15
605,004	32404,72
605,197	32208,03
605,389	33294,41
605,581	33096,72
605,773	34078,84
605,965	34378,08
606,157	35495,5
606,349	35627,19
606,542	36830,73
606,734	37053,25
606,926	38472,91
607,118	38482,13
607,31	39943,24
607,502	39862,43
607,694	41726,43
607,886	41403,86
608,078	43113,04
608,27	42887,21
608,462	43949,25
608,654	43868,73
608,846	45359,6
609,038	45228,61
609,23	46361,35
609,422	46587,88
609,614	47279,88
609,805	47270,06
609,997	47950,45
610,189	48425,14
610,381	49463,64
610,573	48887,51
610,765	50303,66
610,957	49887,86
611,148	50681,91
611,34	50134,52
611,532	51851,41
611,724	51331,65
611,915	51763,68
612,107	51286,09
612,299	52178,18
612,491	51098,01
612,682	51479,37
612,874	50536,1
613,066	50957,21
613,257	49486,28
613,449	50009,04
613,64	48895,92
613,832	47880,35
614,024	47117,44
614,215	45832,58
614,407	44596,69
614,598	43296,4
614,79	41821,17
614,981	41131,27
615,173	39566,3
615,364	38969,53
615,556	37161,31
615,747	36739,2
615,939	34349,13
616,13	33777,11
616,322	32272,52
616,513	31026,02
616,705	29309,33
616,896	28784,77
617,087	27049,05
617,279	26395,4
617,47	24827,93
617,661	24427,85
617,853	22897,33
618,044	22140,84
618,235	21037,94
618,427	20306,48
618,618	19174,04
618,809	18546,23
619	17485,59
619,192	16857,68
619,383	15796,94
619,574	15317,85
619,765	14309,69
619,957	14075,75
620,148	13141,19
620,339	12955,72
620,53	12138,54
620,721	11734,65
620,912	11088,52
621,103	10979,86
621,294	10409,63
621,485	10113,5
621,677	9532,66
621,868	9298,62
622,059	8640,87
622,25	8564,16
622,441	8048,61
622,632	7898,09
622,823	7482,59
623,014	7241,84
623,205	6994,18
623,395	6703,26
623,586	6407,13
623,777	6391,01
623,968	5978,31
624,159	5876,06
624,35	5646,73
624,541	5550,59
624,732	5296,12
624,923	5203,48
625,113	4896,94
625,304	4730,9
625,495	4575,87
625,686	4449,69
625,877	4348,95
626,067	4118,01
626,258	3992,63
626,449	3906,8
626,639	3735,96
626,83	3706,01
627,021	3508,63
627,211	3398,37
627,402	3312,94
627,593	3047,76
627,783	3039,05
627,974	2902,15
628,165	2789,99
628,355	2701,76
628,546	2593,1
628,736	2560,15
628,927	2439,38
629,117	2418,05
629,308	2291,16
629,498	2225,97
629,689	2177,4
629,879	2135,84
630,07	1990,13
630,26	1917,42
630,451	1863,34
630,641	1837,61
630,832	1766,4
631,022	1683,48
631,212	1663,25
631,403	1572,32
631,593	1505,52
631,784	1392,56
631,974	1473,78
632,164	1420,4
632,355	1310,24
632,545	1271,18
632,735	1239,44
632,925	1168,94
633,116	1154,42
633,306	1021,82
633,496	1069,99
633,686	1071,7
633,876	1022,52
634,067	976,76
634,257	944,21
634,447	915,97
634,637	842,96
634,827	813,12
635,017	699,86
635,208	842,96
635,398	769,46
635,588	784,18
635,778	651,89
635,968	792,99
636,158	725,99
636,348	645,48
636,538	629,75
636,728	639,77
636,918	629,55
637,108	621,84
637,298	518,59
637,488	569,07
637,678	556,45
637,868	540,02
638,057	557,55
638,247	513,99
638,437	469,72
638,627	568,87
638,817	430,17
639,007	389,41
639,197	455,3
639,386	362,27
639,576	436,47
639,766	356,66
639,956	459,91
640,145	347,65
640,335	383
640,525	362,87
640,715	433,87
640,904	338,03
641,094	292,57
641,284	265,53
641,473	264,93
641,663	301,88
641,853	243,49
642,042	295,77
642,232	268,93
642,421	238,09
642,611	331,72
642,801	267,33
642,99	243,29
643,18	285,05
643,369	292,67
643,559	244,3
643,748	325,11
643,938	290,46
644,127	166,28
644,317	135,64
644,506	182,41
644,695	229,17
644,885	187,51
645,074	111,6
645,264	182,01
645,453	170,29
645,642	178
645,832	119,41
646,021	207,94
646,21	193,32
646,4	73,45
646,589	157,57
646,778	193,62
646,967	77,35
647,157	68,34
647,346	203,44
647,535	78,96
647,724	153,86
647,913	156,57
648,103	127,23
648,292	127,63
648,481	160,98
648,67	160,98
648,859	100,69
649,048	173,89
649,237	37,2
649,427	171,99
649,616	131,93
649,805	163,78
649,994	92,98
650,183	96,28
650,372	134,64
650,561	90,27
650,75	150,96
650,939	114,41
651,128	82,46
651,317	71,14
651,506	56,62
651,694	107,2
651,883	146,15
652,072	21,77
652,261	63,53
652,45	68,24
652,639	91,57
652,828	67,94
653,016	118,21
653,205	25,38
653,394	59,83
653,583	11,76
653,772	70,14
653,96	1,64
654,149	16,37
654,338	89,37
654,527	64,13
654,715	68,74
654,904	78,05
655,093	56,12
655,281	69,04
655,47	54,72
655,658	42,4
655,847	4,75
656,036	78,05
656,224	85,27
656,413	65,74
656,601	10,46
656,79	27,78
656,978	60,33
657,167	80,36
657,355	48,91
657,544	26,98
657,732	76,95
657,921	18,17
658,109	18,77
658,298	53,92
658,486	34,99
658,675	38,7
658,863	167,48
659,051	52,22
659,24	33,09
659,428	-15,58
659,616	26,78
659,805	6,95
659,993	-12,48
660,181	-1,06
660,37	75,35
660,558	-18,79
660,746	92,48
660,934	27,18
661,123	15,66
661,311	-1,76
661,499	126,22
661,687	5,05
661,875	72,05
662,064	15,96
662,252	26,58
662,44	4,05
662,628	-14,18
662,816	41,5
663,004	30,19
663,192	-8,97
663,38	58,83
663,568	88,27
663,756	-6,97
663,944	61,33
664,132	44,61
664,32	22,57
664,508	40,6
664,696	4,05
664,884	97,38
665,072	29,48
665,26	-0,06
665,448	86,37
665,636	-14,68
665,824	106,9
666,012	2,95
666,199	-9,87
666,387	27,78
666,575	22,97
666,763	5,95
666,951	2,95
667,139	47,61
667,326	45,91
667,514	-39,42
667,702	5,55
667,889	62,83
668,077	25,68
668,265	-48,93
668,453	14,86
668,64	-17,08
668,828	28,78
669,016	24,18
669,203	39,9
669,391	66,24
669,578	50,51
669,766	11,76
669,954	7,35
670,141	37,7
670,329	-75,67
670,516	20,57
670,704	98,99
670,891	22,27
671,079	-1,06
671,266	87,27
671,454	67,14
671,641	33,79
671,828	39,3
672,016	-57,14
672,203	-1,86
672,391	28,08
672,578	13,56
672,765	-54,34
672,953	18,77
673,14	41,5
673,327	5,35
673,515	32,59
673,702	16,77
673,889	-12,28
674,077	-71,76
674,264	54,02
674,451	-3,36
674,638	15,96
674,825	-61,65
675,013	31,79
675,2	43,81
675,387	5,65
675,574	-41,92
675,761	44,91
675,948	54,32
676,136	52,62
676,323	6,15
676,51	10,96
676,697	117,41
676,884	6,05
677,071	40,6
677,258	73,45
677,445	40,5
677,632	15,36
677,819	-18,69
678,006	53,32
678,193	-49,83
678,38	-19,99
678,567	55,32
678,754	84,06
678,94	28,88
679,127	24,38
679,314	39,8
679,501	13,16
679,688	94,38
679,875	38,1
680,062	51,02
680,248	47,81
680,435	43,6
680,622	77,55
680,809	14,56
680,995	52,52
681,182	37,2
681,369	10,66
681,556	48,01
681,742	73,95
681,929	83,46
682,116	105,49
682,302	-63,45
682,489	53,32
682,675	-35,21
682,862	81,86
683,049	76,05
683,235	11,96
683,422	-53,94
683,608	73,75
683,795	-32,31
683,981	-51,13
684,168	-25,7
684,354	69,74
684,541	10,36
684,727	66,44
684,914	45,61
685,1	30,29
685,287	24,48
685,473	30,79
685,659	25,48
685,846	70,14
686,032	-16,48
686,218	32,49
686,405	30,09
686,591	14,36
686,777	51,42
686,964	58,63
687,15	126,53
687,336	23,38
687,522	61,13
687,709	-70,86
687,895	35,39
688,081	34,89
688,267	10,56
688,454	30,49
688,64	32,69
688,826	66,94
689,012	-21,09
689,198	-10,47
689,384	34,99
689,57	-25,4
689,756	4,45
689,942	-9,97
690,128	41,9
690,314	48,71
690,501	-35,21
690,687	29,88
690,873	14,86
691,058	-16,98
691,244	7,85
691,43	-72,86
691,616	51,52
691,802	-33,61
691,988	46,61
692,174	35,59
692,36	20,87
692,546	-26,9
692,732	69,54
692,917	62,33
693,103	52,92
693,289	63,53
693,475	-4,77
693,661	-1,46
693,846	10,26
694,032	-67,06
694,218	19,07
694,404	57,32
694,589	20,97
694,775	29,18
694,961	-6,57
695,146	-43,52
695,332	16,67
695,518	60,63
695,703	16,06
695,889	55,82
696,074	-7,57
696,26	-21,29
696,446	-49,93
696,631	87,27
696,817	64,33
697,002	46,31
697,188	16,77
697,373	26,38
697,559	19,87
697,744	7,65
697,93	70,34
698,115	-58,34
698,3	-30,4
698,486	-5,47
698,671	72,85
698,857	-12,98
699,042	-101,31
699,227	109,7
699,413	-32,21
699,598	-1,06
699,783	22,17
699,969	104,29
700,154	2,14
700,339	-9,47
700,524	-8,77
700,71	-2,36
700,895	-42,42
701,08	99,19
701,265	-56,74
701,45	76,65
701,636	-11,07
701,821	-17,08
702,006	-6,47
702,191	-5,77
702,376	-80,27
702,561	-42,82
702,746	-22,89
702,931	80,26
703,116	52,42
703,301	-8,57
703,486	10,96
703,671	-8,17
703,856	-69,36
704,041	16,87
704,226	69,54
704,411	-59,24
704,596	-170,1
704,781	-14,98
704,966	43
705,151	26,38
705,336	-22,09
705,521	5,65
705,706	92,28
705,89	-22,79
706,075	8,95
706,26	38,7
706,445	27,28
706,63	-37,41
706,814	29,58
706,999	0,94
707,184	-0,96
707,368	44,21
707,553	38,9
707,738	-2,76
707,923	73,35
708,107	9,66
708,292	3,95
708,476	49,81
708,661	36,9
708,846	39,1
709,03	37,1
709,215	27,38
709,399	-21,59
709,584	-37,01
709,768	46,11
709,953	17,57
710,137	30,49
710,322	-31,8
710,506	-23,69
710,691	-37,01
710,875	-18,08
711,06	32,09
711,244	33,99
711,429	4,35
711,613	-34,11
711,797	30,59
711,982	13,26
712,166	76,05
712,35	-5,07
712,535	64,44
712,719	107,3
712,903	13,66
713,088	-22,99
713,272	24,78
713,456	-11,37
713,64	-14,88
713,824	-43,72
714,009	92,48
714,193	-53,94
714,377	-39,52
714,561	-5,77
714,745	63,33
714,929	88,17
715,113	-1,46
715,298	-21,49
715,482	79,26
715,666	-31
715,85	11,06
716,034	9,36
716,218	-14,68
716,402	-0,66
716,586	1,54
716,77	6,95
716,954	51,22
717,138	-2,06
717,322	-59,04
717,506	-12,28
717,689	13,56
717,873	-38,71
718,057	18,47
718,241	5,75
718,425	24,98
718,609	31,09
718,793	33,79
718,976	36,59
719,16	58,53
719,344	50,21
719,528	70,64
719,711	16,97
719,895	85,97
720,079	93,88
720,263	67,64
720,446	-17,28
720,63	-73,97
720,814	-103,21
720,997	-6,67
721,181	0,14
721,364	28,98
721,548	6,95
721,732	-8,87
721,915	58,83
722,099	41,4
722,282	31,29
722,466	45,01
722,649	-78,37
722,833	2,45
723,016	11,66
723,2	14,16
723,383	-30
723,567	26,98
723,75	15,26
723,934	-9,27
724,117	-2,56
724,3	-9,47
724,484	-2,86
724,667	-32,81
724,85	14,16
725,034	41,4
725,217	-18,59
725,4	32,89
725,584	100,49
725,767	-42,02
725,95	28,58
726,133	-37,51
726,317	25,68
726,5	0,74
726,683	32,99
726,866	38,6
727,049	-5,57
727,232	2,95
727,416	-3,46
727,599	36,19
727,782	-55,24
727,965	-11,68
728,148	110,4
728,331	97,08
728,514	39,1
728,697	-16,78
728,88	-19,99
729,063	32,29
729,246	-46,83
729,429	22,67
729,612	-9,27
729,795	37,3
729,978	70,34
730,161	73,75
730,344	-9,47
730,526	26,78
730,709	42,9
730,892	53,82
731,075	-22,39
731,258	42
731,441	65,64
731,623	18,67
731,806	-24,19
731,989	13,36
732,172	-84,18
732,354	17,47
732,537	119,21
732,72	-43,82
732,903	34,39
733,085	14,16
733,268	66,14
733,451	22,87
733,633	52,72
733,816	71,24
733,998	-1,16
734,181	-87,28
734,364	3,95
734,546	14,06
734,729	15,76
734,911	-6,97
735,094	5,35
735,276	39,3
735,459	18,07
735,641	-59,95
735,824	-52,43
736,006	0,84
736,188	62,13
736,371	5,85
736,553	41,8
736,736	45,51
736,918	-20,39
737,1	12,66
737,283	-71,56
737,465	11,26
737,647	-22,79
737,83	-67,36
738,012	39
738,194	57,93
738,376	-49,43
738,559	-38,31
738,741	16,57
738,923	3,45
739,105	3,55
739,287	25,88
739,469	33,29
739,652	35,89
739,834	13,56
740,016	64,03
740,198	44,01
740,38	0,64
740,562	-21,99
740,744	88,97
740,926	0,24
741,108	-10,57
741,29	11,66
741,472	-1,06
741,654	28,08
741,836	43,4
742,018	30,29
742,2	75,95
742,382	-16,58
742,564	72,05
742,746	24,38
742,928	28,98
743,109	-4,06
743,291	-49,93
743,473	-38,31
743,655	-32,21
743,837	-13,08
744,019	34,89
744,2	27,88
744,382	-0,56
744,564	-61,75
744,746	-57,64
744,927	28,08
745,109	-35,81
745,291	11,76
745,472	-14,28
745,654	36,49
745,836	12,46
746,017	-8,97
746,199	52,12
746,38	25,68
746,562	-65,85
746,744	12,56
746,925	16,27
747,107	58,13
747,288	21,17
747,47	-40,42
747,651	-52,73
747,833	-74,17
748,014	8,95
748,195	91,57
748,377	25,38
748,558	30,09
748,74	20,47
748,921	35,79
749,102	51,22
749,284	-20,99
749,465	97,18
749,646	19,47
749,828	-16,08
750,009	17,97
750,19	37,4
750,372	90,17
750,553	54,12
750,734	28,88
750,915	-73,06
751,096	55,22
751,278	23,58
751,459	87,17
751,64	-8,57
751,821	64,13
752,002	-22,39
752,183	-12,68
752,364	-11,27
752,546	31,49
752,727	-4,77
752,908	23,48
753,089	-10,57
753,27	52,52
753,451	6,25
753,632	-0,36
753,813	-41,42
753,994	-0,56
754,175	17,97
754,356	11,26
754,536	33,69
754,717	-50,23
754,898	54,72
755,079	73,45
755,26	48,31
755,441	39,2
755,622	11,06
755,802	67,84
755,983	-44,92
756,164	11,56
756,345	54,52
756,526	15,46
756,706	43,91
756,887	33,69
757,068	73,95
757,248	27,08
757,429	35,79
757,61	10,86
757,79	32,49
757,971	6,45
758,152	-10,07
758,332	-89,99
758,513	29,78
758,693	11,26
758,874	42,4
759,055	39,7
759,235	-6,67
759,416	-24,59
759,596	1,94
759,777	78,86
759,957	-56,64
760,137	63,33
760,318	17,07
760,498	46,61
760,679	3,15
760,859	6,25
761,039	59,93
761,22	56,22
761,4	41,7
761,581	83,86
761,761	-9,07
761,941	110
762,121	9,46
762,302	-29,3
762,482	65,54
762,662	-21,99
762,842	2,85
763,023	34,79
763,203	-69,66
763,383	30,99
763,563	35,39
763,743	16,77
763,923	5,05
764,104	58,93
764,284	-19,49
764,464	-16,28
764,644	-8,27
764,824	13,26
765,004	-37,41
765,184	-7,07
765,364	-36,31
765,544	-4,77
765,724	-13,48
765,904	-1,16
766,084	-2,66
766,264	10,26
766,444	17,27
766,624	-10,17
766,804	-55,34
766,983	54,42
767,163	50,51
767,343	-15,18
767,523	70,64
767,703	58,93
767,883	60,73
768,062	-34,01
768,242	-13,38
768,422	3,85
768,602	30,99
768,781	-54,04
768,961	-25,5
769,141	-13,08
769,32	19,87
769,5	14,86
769,68	-5,37
769,859	-11,78
770,039	54,02
770,219	10,06
770,398	-52,23
770,578	7,75
770,757	-12,98
770,937	23,38
771,116	-24,99
771,296	4,35
771,475	-21,89
771,655	-57,74
771,834	24,28
772,014	1,64
772,193	109,8
772,373	1,94
772,552	-34,71
772,731	-29
772,911	-0,36
773,09	38,4
773,269	21,27
773,449	48,21
773,628	68,74
773,807	-16,78
773,987	-18,99
774,166	-17,28
774,345	39,4
774,524	-27
774,704	-12,28
774,883	-14,58
775,062	0,84
775,241	70,44
775,42	25,58
775,6	51,62
775,779	-30,4
775,958	20,47
776,137	51,02
776,316	18,67
776,495	57,93
776,674	-65,55
776,853	-1,26
777,032	7,95
777,211	20,27
777,39	-30,6
777,569	30,79
777,748	16,87
777,927	-7,67
778,106	9,15
778,285	37
778,464	-23,69
778,643	45,81
778,822	-25,5
779	56,02
779,179	10,36
779,358	41
779,537	0,24
779,716	-23,29
779,894	5,45
780,073	8,85
780,252	-37,21
780,431	-22,09
780,609	-30
780,788	50,72
780,967	-60,75
781,145	62,53
781,324	-0,26
781,503	-42,52
781,681	-19,19
781,86	3,35
782,039	17,77
782,217	-27,7
782,396	-4,06
782,574	-28,1
782,753	64,33
782,931	35,39
783,11	35,79
783,288	-48,83
783,467	54,42
783,645	-90,99
783,824	61,63
784,002	-87,39
784,18	-25,5
784,359	3,65
784,537	-53,64
784,716	24,48
784,894	43,2
785,072	-93,69
785,251	14,96
785,429	-10,27
785,607	16,97
785,785	-27,3
785,964	35,39
786,142	-136,86
786,32	34,29
786,498	-51,33
786,677	58,93
786,855	-9,47
787,033	26,38
787,211	-67,96
787,389	53,42
787,567	19,67
787,745	-1,86
787,923	49,01
788,102	23,58
788,28	29,38
788,458	-12,18
788,636	-17,18
788,814	-7,87
788,992	47,21
789,17	40
789,348	64,64
789,526	60,23
789,703	-35,61
789,881	19,07
790,059	-30,8
790,237	10,96
790,415	-10,57
790,593	33,69
790,771	42
790,949	12,56
791,126	80,16
791,304	-19,49
791,482	-32,61
791,66	-3,26
791,837	23,08
792,015	16,37
792,193	-29,5
792,371	90,97
792,548	56,62
792,726	46,81
792,904	-27,2
793,081	-15,38
793,259	-71,06
793,436	56,42
793,614	11,66
793,792	10,46
793,969	82,56
794,147	44,21
794,324	107,4
794,502	35,29
794,679	-59,44
794,857	43,71
795,034	44,21
795,212	-14,78
795,389	29,18
795,567	61,63
795,744	48,71
795,921	-9,87
796,099	-29,9
796,276	5,05
796,453	50,62
796,631	-30,8
796,808	-27,6
796,985	9,26
797,163	79,36
797,34	-31,2
797,517	23,68
797,694	-26,4
797,872	-12,68
798,049	-8,97
798,226	43,81
798,403	39,7
798,58	100,19
798,757	-25,4
798,935	32,69
799,112	-55,74
799,289	-18,99
799,466	-14,38
799,643	84,66
799,82	54,92
799,997	72,55
800,174	45,61
800,351	-39,32
800,528	78,96
800,705	27,88
800,882	13,06
801,059	15,86
801,236	33,99
801,413	-23,09
801,589	-10,37
801,766	3,05
801,943	27,08
802,12	77,95
802,297	48,51
802,474	3,45
802,651	3,85
802,827	26,68
803,004	21,57
803,181	38,8
803,358	70,84
803,534	-2,06
803,711	-21,99
803,888	-34,91
804,064	-6,17
804,241	-45,82
804,418	-33,31
804,594	-6,97
804,771	-77,37
804,947	121,62
805,124	-42,62
805,301	71,04
805,477	63,83
805,654	27,98
805,83	-48,93
806,007	5,65
806,183	44,11
806,36	23,68
806,536	-45,12
806,712	-37,31
806,889	5,65
807,065	-19,39
807,242	-11,78
807,418	22,27
807,594	41,9
807,771	26,58
807,947	-44,42
808,123	29,38
808,3	38,4
808,476	0,54
808,652	-17,68
808,829	2,45
809,005	60,73
809,181	-8,77
809,357	35,59
809,533	-0,46
809,71	39,5
809,886	40,1
810,062	111,9
810,238	-26,2
810,414	41,7
810,59	5,55
810,766	-8,77
810,942	18,27
811,118	7,95
811,294	-7,17
811,47	-16,98
811,646	86,27
811,822	5,95
811,998	61,73
812,174	-40,42
812,35	23,58
812,526	8,45
812,702	-31,3
812,878	14,76
813,054	24,68
813,23	-91,29
813,405	41,2
813,581	8,85
813,757	34,19
813,933	91,27
814,109	-24,59
814,284	106,4
814,46	0,74
814,636	-19,19
814,812	-19,39
814,987	-27,4
815,163	53,62
815,339	14,26
815,514	-14,08
815,69	1,24
815,866	13,86
816,041	36,49
816,217	61,73
816,392	21,87
816,568	44,31
816,743	28,88
816,919	34,59
817,094	13,46
817,27	-21,99
817,445	65,94
817,621	-15,58
817,796	57,02
817,972	-23,79
818,147	-70,36
818,322	3,55
818,498	99,59
818,673	-14,38
818,849	-18,08
819,024	-53,84
819,199	35,09
819,375	24,58
819,55	44,91
819,725	52,52
819,9	-12,68
820,076	51,62
820,251	-4,97
820,426	104,59
820,601	76,45
820,776	20,97
820,952	55,32
821,127	49,81
821,302	76,45
821,477	-5,17
821,652	51,52
821,827	-2,26
822,002	9,96
822,177	-7,07
822,352	14,56
822,527	20,07
822,702	-13,38
822,877	21,67
823,052	-10,07
823,227	22,17
823,402	27,18
823,577	45,71
823,752	28,48
823,927	-33,91
824,102	82,26
824,277	84,16
824,451	27,08
824,626	-15,78
824,801	0,14
824,976	113,91
825,151	25,08
825,325	68,84
825,5	18,37
825,675	71,85
825,85	66,64
826,024	78,66
826,199	42,7
826,374	-9,97
826,548	42,9
826,723	79,36
826,897	27,08
827,072	-22,19
827,247	31,89
827,421	-10,67
827,596	4,75
827,77	4,25
827,945	75,95
828,119	-7,77
828,294	77,25
828,468	2,45
828,643	3,45
828,817	17,97
828,992	-5,17
829,166	-32,41
829,34	83,66
829,515	53,92
829,689	65,44
829,864	28,08
830,038	46,81
830,212	75,35
830,386	-2,06
830,561	76,15
830,735	-11,17
830,909	41
831,084	-24,59
831,258	43,2
831,432	33,79
831,606	27,98
831,78	43,3
831,954	95,28
832,129	66,64
832,303	26,98
832,477	5,15
832,651	72,35
832,825	-43,02
832,999	85,37
833,173	-26,3
833,347	-17,88
833,521	21,27
833,695	48,01
833,869	20,57
834,043	16,87
834,217	0,74
834,391	13,36
834,565	-8,57
834,739	13,06
834,913	-5,37
835,086	0,84
835,26	-16,18
835,434	9,56
835,608	30,29
835,782	14,86
835,956	-2,56
836,129	-3,36
836,303	97,08
836,477	22,77
836,651	13,26
836,824	44,81
836,998	3,45
837,172	23,38
837,345	90,37
837,519	7,65
837,693	25,28
837,866	26,78
838,04	-16,48
838,213	-32,91
838,387	20,67
838,56	3,45
838,734	25,18
838,907	68,84
839,081	52,72
839,254	44,41
839,428	-32,51
839,601	64,74
839,775	-86,98
839,948	38,8
840,122	57,22
840,295	17,87
840,468	-7,77
840,642	46,41
840,815	-2,76
840,988	-41,12
841,162	6,85
841,335	56,42
841,508	51,42
841,682	-1,76
841,855	42,4
842,028	49,11
842,201	41,4
842,374	2,75
842,548	58,83
842,721	39,8
842,894	21,47
843,067	-94,3
843,24	-72,26
843,413	-1,76
843,586	55,62
843,759	17,17
843,932	66,54
844,105	-29,8
844,278	24,68
844,451	46,61
844,624	46,51
844,797	24,88
844,97	41,6
845,143	21,07
845,316	81,86
845,489	-30
845,662	2,65
845,835	86,17
846,008	-18,59
846,18	17,47
846,353	102,19
846,526	52,92
846,699	33,49
846,872	63,03
847,044	38,1
847,217	-12,98
847,39	20,77
847,563	82,06
847,735	19,17
847,908	58,43
848,081	-15,08
848,253	-6,97
848,426	-30,3
848,598	63,03
848,771	57,02
848,944	-50,33
849,116	-47,33
849,289	14,56
849,461	0,14
849,634	26,08
849,806	9,96
849,979	38,9
850,151	88,37
850,324	122,32
850,496	40,4
850,668	-48,83
850,841	-10,37
851,013	57,42
851,186	-12,78
851,358	-3,66
851,53	35,19
851,703	23,68
851,875	5,45
852,047	2,95
852,219	-69,86
852,392	65,24
852,564	28,68
852,736	-54,24
852,908	-8,77
853,081	78,05
853,253	40,6
853,425	34,89
853,597	80,86
853,769	-3,96
853,941	59,43
854,113	10,26
854,285	62,03
854,457	73,05
854,63	9,56
854,802	70,04
854,974	24,08
855,146	49,21
855,318	114,41
855,489	15,16
855,661	93,28
855,833	24,48
856,005	48,61
856,177	-53,44
856,349	13,16
856,521	1,44
856,693	-64,55
856,865	-29,6
857,036	164,38
857,208	58,23
857,38	-11,58
857,552	22,17
857,723	25,68
857,895	-4,56
858,067	-22,19
858,239	37
858,41	-64,45
858,582	52,32
858,754	33,59
858,925	-111,62
859,097	36,9
859,268	60,93
859,44	-7,87
859,612	-18,59
859,783	-82,88
859,955	-19,49
860,126	-14,68
860,298	3,95
860,469	48,61
860,641	-16,78
860,812	-27,6
860,983	-29,8
861,155	18,77
861,326	28,68
861,498	16,67
861,669	17,37
861,84	77,95
862,012	60,73
862,183	49,71
862,354	83,56
862,526	-4,26
862,697	35,89
862,868	-20,59
863,039	24,08
863,211	-65,45
863,382	11,36
863,553	-17,38
863,724	-11,58
863,895	12,36
864,066	91,87
864,238	18,07
864,409	73,85
864,58	-63,95
864,751	80,96
864,922	-27,6
865,093	52,12
865,264	80,26
865,435	-1,36
865,606	37,5
865,777	12,96
865,948	17,77
866,119	58,83
866,29	77,45
866,461	13,16
866,632	-54,74
866,802	8,25
866,973	28,38
867,144	-15,38
867,315	17,37
867,486	17,07
867,657	17,87
867,827	70,94
867,998	74,05
868,169	-15,68
868,34	80,76
868,51	0,94
868,681	89,07
868,852	-20,79
869,022	72,75
869,193	95,48
869,364	22,87
869,534	-7,17
869,705	20,77
869,875	10,66
870,046	7,55
870,217	21,77
870,387	33,19
870,558	86,47
870,728	24,88
870,899	11,86
871,069	-2,86
871,239	78,15
871,41	17,87
871,58	66,84
871,751	32,69
871,921	-2,66
872,091	-27
872,262	39,7
872,432	83,66
872,602	-114,12
872,773	36,9
872,943	-0,06
873,113	69,74
873,284	-29,7
873,454	19,57
873,624	24,58
873,794	-11,27
873,964	50,41
874,135	5,75
874,305	4,35
874,475	14,26
874,645	-52,33
874,815	32,09
874,985	-14,38
875,155	-4,97
875,325	-30,9
875,495	8,35
875,665	-7,07
875,835	7,35
876,005	-4,06
876,175	26,48
876,345	20,47
876,515	-11,17
876,685	93,78
876,855	66,44
877,025	-1,86
877,195	-61,05
877,365	6,95
877,534	38,4
877,704	14,96
877,874	88,67
878,044	-19,19
878,214	53,32
878,383	25,98
878,553	65,14
878,723	-14,98
878,892	54,42
879,062	39,4
879,232	21,17
879,401	-10,67
879,571	27,48
879,741	-104,31
879,91	-25,09
880,08	33,29
880,249	11,56
880,419	8,75
880,589	13,66
880,758	12,96
880,928	55,92
881,097	-47,43
881,267	27,08
881,436	-6,77
881,605	53,92
881,775	-103,31
881,944	-6,87
882,114	54,72
882,283	5,85
882,452	44,31
882,622	-11,78
882,791	-43,62
882,96	-27,7
883,13	47,91
883,299	20,27
883,468	-14,78
883,637	-30,4
883,807	47,71
883,976	-37,21
884,145	10,86
884,314	43,81
884,483	-26,7
884,652	30,29
884,822	-9,17
884,991	-21,39
885,16	15,76
885,329	4,95
885,498	0,74
885,667	38,8
885,836	13,16
886,005	-32,71
886,174	41
886,343	46,81
886,512	1,24
886,681	17,27
886,85	59,13
887,019	48,41
887,187	15,16
887,356	34,79
887,525	-54,84
887,694	-14,88
887,863	4,85
888,032	-20,89
888,2	-10,07
888,369	-23,69
888,538	18,17
888,707	13,66
888,875	-43,32
889,044	-30,2
889,213	89,57
889,381	-6,17
889,55	-8,37
889,719	30,89
889,887	68,44
890,056	-74,87
890,224	58,63
890,393	-19,29
890,562	70,34
890,73	10,96
890,899	35,39
891,067	46,01
891,236	-12,98
891,404	38,5
891,573	-41,42
891,741	-53,74
891,909	7,85
892,078	55,62
892,246	6,25
892,415	-6,77
892,583	15,26
892,751	23,38
892,92	19,07
893,088	-15,08
893,256	58,03
893,424	-19,69
893,593	31,19
893,761	-25,09
893,929	-45,92
894,097	23,68
894,265	-27,2
894,434	31,19
894,602	52,22
894,77	-6,87
894,938	19,47
895,106	44,91
895,274	47,11
895,442	0,04
895,61	76,25
895,778	-27,9
895,946	7,75
896,114	18,67
896,282	-53,94
896,45	40,5
896,618	48,51
896,786	20,07
896,954	9,56
897,122	-4,56
897,29	-11,58
897,458	-7,97
897,625	14,56
897,793	73,35
897,961	76,45
898,129	-32,91
898,297	65,94
898,464	3,95
898,632	-0,66
898,8	44,01
898,968	-36,71
899,135	42,1
899,303	-5,67
899,471	-46,73
899,638	21,47
899,806	0,64
899,973	15,06
900,141	71,14
900,309	-11,47
900,476	6,95
900,644	65,54
900,811	8,45
900,979	53,52
901,146	17,57
901,314	10,66
901,481	-16,58
901,649	46,61
901,816	4,55
901,983	26,38
902,151	-20,59
