Data from Subt4__24__14-57-41-834.txt Node

Date: Thu Feb 19 14:57:41 CET 2026
User: Versuch 234
Spectrometer: USB4F05580
Trigger mode: 4
Integration Time (sec): 6,000000E-3
Scans to average: 20
Electric dark correction enabled: true
Nonlinearity correction enabled: false
Boxcar width: 0
XAxis mode: Wavelengths
Number of Pixels in Spectrum: 3648
>>>>>Begin Spectral Data<<<<<
197,409	105,19
197,623	105,19
197,837	105,19
198,051	162,97
198,265	119,61
198,479	-57,35
198,693	-23,5
198,907	-25,1
199,122	16,96
199,336	-20,5
199,55	13,55
199,763	57,02
199,977	2,24
200,191	59,42
200,405	2,14
200,619	18,56
200,833	-43,43
201,047	21,46
201,261	83,85
201,475	90,26
201,689	65,23
201,903	44,5
202,117	-25,9
202,331	-2,97
202,545	26,07
202,758	57,32
202,972	-30,51
203,186	-63,56
203,4	67,13
203,614	56,42
203,828	-16,69
204,041	63,12
204,255	46
204,469	32,48
204,683	56,52
204,897	36,79
205,11	76,74
205,324	40,69
205,538	15,86
205,752	7,94
205,965	120,11
206,179	63,33
206,393	-59,85
206,606	41,59
206,82	29,48
207,034	54,31
207,248	23,77
207,461	40,39
207,675	46,3
207,889	48,2
208,102	58,62
208,316	-4,97
208,529	21,46
208,743	29,18
208,957	63,83
209,17	-11,88
209,384	74,64
209,597	16,76
209,811	85,26
210,025	75,94
210,238	37,29
210,452	35,08
210,665	68,73
210,879	45,4
211,092	8,55
211,306	20,56
211,519	-4,87
211,733	35,48
211,946	115,4
212,16	97,47
212,373	3,44
212,587	33,68
212,8	20,16
213,014	24,07
213,227	66,03
213,44	35,08
213,654	116,1
213,867	130,72
214,081	89,06
214,294	21,87
214,507	71,14
214,721	72,04
214,934	74,24
215,148	28,98
215,361	140,74
215,574	75,84
215,788	-70,37
216,001	112,2
216,214	28,27
216,428	64,03
216,641	43,7
216,854	57,52
217,067	58,82
217,281	74,44
217,494	69,83
217,707	91,27
217,92	-18,09
218,134	91,87
218,347	103,58
218,56	70,74
218,773	-9,48
218,986	112,2
219,2	56,52
219,413	36,39
219,626	20,86
219,839	107,39
220,052	82,45
220,265	26,67
220,479	81,65
220,692	74,54
220,905	29,88
221,118	72,64
221,331	2,44
221,544	59,22
221,757	74,74
221,97	91,37
222,183	-23,7
222,396	65,13
222,609	37,79
222,822	-36,22
223,035	51,81
223,249	48,6
223,462	59,72
223,675	-17,89
223,887	51,21
224,1	75,54
224,313	87,46
224,526	84,26
224,739	48,9
224,952	101,68
225,165	32,48
225,378	42,6
225,591	135,73
225,804	37,89
226,017	83,15
226,23	15,86
226,443	33,78
226,656	32,38
226,868	-16,19
227,081	103,38
227,294	28,98
227,507	53,31
227,72	-0,17
227,933	106,19
228,145	63,63
228,358	28,98
228,571	73,74
228,784	-4,87
228,997	-12,79
229,209	87,66
229,422	38,09
229,635	89,46
229,848	39,29
230,06	-0,47
230,273	-20,9
230,486	70,24
230,698	-17,09
230,911	28,47
231,124	21,87
231,336	2,24
231,549	76,54
231,762	88,56
231,974	-10,48
232,187	-2,97
232,4	106,69
232,612	22,67
232,825	61,52
233,038	48,8
233,25	53,61
233,463	34,08
233,675	16,76
233,888	71,04
234,1	131,82
234,313	88,76
234,526	84,86
234,738	23,87
234,951	6,74
235,163	-0,47
235,376	55,91
235,588	-54,85
235,801	32,18
236,013	-42,63
236,226	75,44
236,438	44,7
236,65	90,76
236,863	14,65
237,075	125,01
237,288	-18,29
237,5	-1,27
237,713	-2,47
237,925	6,84
238,137	35,69
238,35	71,04
238,562	36,99
238,774	116,8
238,987	161,97
239,199	57,32
239,411	40,99
239,624	75,64
239,836	79,95
240,048	24,27
240,261	114,6
240,473	32,98
240,685	58,22
240,897	15,46
241,11	31,78
241,322	74,04
241,534	45,3
241,746	34,48
241,959	112,6
242,171	40,29
242,383	39,19
242,595	-0,17
242,807	32,48
243,02	78,55
243,232	80,85
243,444	6,84
243,656	86,56
243,868	63,33
244,08	-30,41
244,293	-22,9
244,505	54,81
244,717	56,92
244,929	21,46
245,141	13,55
245,353	23,37
245,565	84,86
245,777	31,18
245,989	36,39
246,201	-20,7
246,413	90,06
246,625	-2,67
246,837	14,55
247,049	66,43
247,261	104,99
247,473	45,1
247,685	94,37
247,897	67,93
248,109	2,84
248,321	71,44
248,533	-50,74
248,745	15,06
248,957	44,1
249,169	-0,67
249,381	81,25
249,593	18,96
249,804	72,74
250,016	66,33
250,228	13,05
250,44	96,87
250,652	51,81
250,864	76,04
251,075	29,38
251,287	11,65
251,499	109,69
251,711	73,84
251,923	47,2
252,134	69,13
252,346	5,54
252,558	53,41
252,77	34,48
252,982	20,66
253,193	55,81
253,405	43,6
253,617	87,16
253,828	-20,9
254,04	118,81
254,252	129,22
254,463	55,71
254,675	29,08
254,887	-24,7
255,098	38,19
255,31	44,5
255,522	104,08
255,733	50,01
255,945	95,27
256,157	36,19
256,368	25,27
256,58	78,35
256,791	56,21
257,003	108,79
257,214	89,16
257,426	82,85
257,637	62,02
257,849	55,41
258,061	91,37
258,272	78,15
258,484	77,15
258,695	71,94
258,907	55,01
259,118	80,45
259,329	-13,39
259,541	64,83
259,752	83,75
259,964	110,09
260,175	16,66
260,387	-34,02
260,598	65,23
260,809	68,73
261,021	37,69
261,232	68,33
261,444	30,08
261,655	92,07
261,866	24,27
262,078	59,82
262,289	48,6
262,5	40,79
262,712	26,87
262,923	24,47
263,134	11,45
263,345	75,14
263,557	-16,19
263,768	0,93
263,979	13,95
264,191	37,69
264,402	-26,91
264,613	84,56
264,824	18,86
265,035	13,65
265,247	100,78
265,458	-27,11
265,669	25,77
265,88	58,42
266,091	32,98
266,302	65,83
266,514	3,14
266,725	13,15
266,936	39,89
267,147	-8,48
267,358	20,96
267,569	102,18
267,78	86,86
267,991	17,56
268,202	87,56
268,414	66,33
268,625	103,88
268,836	7,04
269,047	129,62
269,258	1,34
269,469	34,08
269,68	81,35
269,891	22,87
270,102	96,57
270,313	43,2
270,524	51,51
270,735	53,11
270,945	57,92
271,156	100,48
271,367	79,35
271,578	101,48
271,789	-4,37
272	109,09
272,211	83,55
272,422	29,38
272,633	91,47
272,844	-18,89
273,054	15,96
273,265	55,61
273,476	27,97
273,687	39,49
273,898	30,38
274,109	68,93
274,319	39,79
274,53	137,53
274,741	114,4
274,952	65,53
275,162	90,76
275,373	57,92
275,584	21,06
275,795	7,24
276,005	26,97
276,216	37,89
276,427	70,14
276,637	49,2
276,848	48,2
277,059	-13,99
277,269	25,57
277,48	42,6
277,691	81,95
277,901	28,78
278,112	20,16
278,323	50,61
278,533	87,46
278,744	52,61
278,954	12,85
279,165	49,51
279,376	54,81
279,586	0,83
279,797	55,01
280,007	35,38
280,218	90,66
280,428	114,1
280,639	109,39
280,849	37,09
281,06	31,68
281,27	26,17
281,481	-1,87
281,691	44,1
281,902	39,59
282,112	46,5
282,322	131,22
282,533	40,79
282,743	73,64
282,954	54,91
283,164	12,35
283,374	89,46
283,585	120,31
283,795	-22,7
284,006	57,92
284,216	56,21
284,426	43,6
284,637	-18,69
284,847	2,34
285,057	78,05
285,268	91,47
285,478	39,99
285,688	90,16
285,898	27,37
286,109	77,05
286,319	-5,98
286,529	84,66
286,739	42,19
286,95	101,98
287,16	64,53
287,37	108,49
287,58	15,16
287,79	81,95
288,001	79,75
288,211	68,33
288,421	75,04
288,631	83,96
288,841	59,22
289,051	35,89
289,261	73,84
289,471	-26,2
289,682	42,09
289,892	73,24
290,102	43,7
290,312	21,87
290,522	53,31
290,732	72,64
290,942	91,57
291,152	64,23
291,362	91,57
291,572	-10,88
291,782	56,42
291,992	124,61
292,202	55,81
292,412	-30,41
292,622	55,11
292,832	99,88
293,042	58,82
293,252	86,26
293,462	89,16
293,672	47,2
293,881	66,53
294,091	43,8
294,301	45,5
294,511	87,16
294,721	110,29
294,931	130,12
295,141	35,28
295,35	76,54
295,56	22,67
295,77	46,5
295,98	-15,09
296,19	100,28
296,4	73,04
296,609	-3,57
296,819	73,34
297,029	68,03
297,239	61,52
297,448	116
297,658	62,32
297,868	91,97
298,077	40,69
298,287	41,39
298,497	49,81
298,706	74,34
298,916	26,57
299,126	100,88
299,335	83,25
299,545	40,79
299,755	15,06
299,964	85,86
300,174	168,68
300,384	132,33
300,593	105,39
300,803	39,59
301,012	56,92
301,222	77,45
301,431	23,57
301,641	49,2
301,851	95,57
302,06	90,87
302,27	33,88
302,479	80,05
302,689	86,06
302,898	26,67
303,107	51,11
303,317	96,27
303,526	133,43
303,736	136,63
303,945	81,25
304,155	41,69
304,364	133,03
304,574	87,96
304,783	47,8
304,992	77,85
305,202	49,4
305,411	48,3
305,62	85,26
305,83	122,21
306,039	65,13
306,248	115,8
306,458	18,06
306,667	-14,59
306,876	92,07
307,086	56,72
307,295	43,6
307,504	96,07
307,713	65,03
307,923	-69,57
308,132	93,67
308,341	28,37
308,55	63,33
308,76	24,07
308,969	89,96
309,178	118,91
309,387	107,89
309,596	17,56
309,805	78,35
310,015	76,14
310,224	36,39
310,433	27,27
310,642	27,77
310,851	52,31
311,06	54,01
311,269	52,71
311,478	47
311,687	-67,46
311,896	83,96
312,106	97,27
312,315	96,27
312,524	152,25
312,733	207,23
312,942	45,1
313,151	148,35
313,36	72,24
313,569	79,55
313,778	41,29
313,987	7,64
314,195	98,78
314,404	97,88
314,613	52,81
314,822	105,89
315,031	21,66
315,24	44,6
315,449	179,79
315,658	50,21
315,867	31,48
316,076	26,37
316,284	91,87
316,493	121,21
316,702	85,36
316,911	87,26
317,12	57,12
317,329	117,1
317,537	146,45
317,746	-41,73
317,955	118,3
318,164	77,25
318,372	53,71
318,581	142,44
318,79	49,1
318,999	61,22
319,207	79,95
319,416	-23
319,625	70,24
319,833	75,54
320,042	131,22
320,251	78,05
320,459	32,88
320,668	51,91
320,877	101,98
321,085	-33,21
321,294	-10,38
321,502	88,56
321,711	30,68
321,92	68,93
322,128	8,75
322,337	39,49
322,545	119,91
322,754	75,14
322,962	98,08
323,171	29,98
323,379	26,87
323,588	69,33
323,796	40,19
324,005	91,47
324,213	108,79
324,422	133,73
324,63	1,64
324,839	30,38
325,047	28,47
325,256	62,62
325,464	76,54
325,672	110,49
325,881	44,4
326,089	89,06
326,297	64,53
326,506	-11,98
326,714	108,29
326,923	81,45
327,131	73,34
327,339	95,07
327,548	42,8
327,756	34,18
327,964	27,97
328,172	33,38
328,381	102,08
328,589	104,38
328,797	27,47
329,005	69,73
329,214	6,14
329,422	102,38
329,63	37,99
329,838	167,98
330,046	6,24
330,255	93,07
330,463	67,33
330,671	49,2
330,879	131,82
331,087	78,55
331,295	102,08
331,503	89,06
331,712	46,9
331,92	116,9
332,128	100,68
332,336	92,67
332,544	-6,88
332,752	55,61
332,96	44,9
333,168	46
333,376	-54,15
333,584	57,22
333,792	94,57
334	93,67
334,208	45,2
334,416	120,31
334,624	61,12
334,832	43,9
335,04	59,22
335,248	58,62
335,456	88,26
335,664	2,14
335,872	41,99
336,08	-19,19
336,287	28,47
336,495	141,64
336,703	88,46
336,911	130,62
337,119	67,33
337,327	110,99
337,535	77,25
337,742	41,49
337,95	103,18
338,158	71,14
338,366	26,87
338,573	55,31
338,781	97,47
338,989	147,65
339,197	107,29
339,404	40,59
339,612	79,05
339,82	23,07
340,028	27,47
340,235	120,11
340,443	104,89
340,651	93,57
340,858	-48,94
341,066	42,39
341,274	79,15
341,481	158,76
341,689	122,91
341,896	53,31
342,104	138,53
342,312	109,39
342,519	138,43
342,727	90,26
342,934	81,85
343,142	67,63
343,349	21,26
343,557	192,01
343,765	17,96
343,972	115,3
344,18	35,28
344,387	116,1
344,594	138,43
344,802	203,03
345,009	65,93
345,217	68,93
345,424	149,35
345,632	49,71
345,839	98,38
346,047	97,37
346,254	70,34
346,461	111,9
346,669	79,75
346,876	95,67
347,083	89,96
347,291	86,36
347,498	102,18
347,705	126,42
347,913	47,6
348,12	80,15
348,327	73,94
348,535	44,9
348,742	84,06
348,949	49
349,156	63,02
349,364	74,54
349,571	117,9
349,778	100,38
349,985	9,75
350,192	98,38
350,4	104,18
350,607	140,14
350,814	121,81
351,021	41,99
351,228	99,18
351,435	134,13
351,643	88,06
351,85	99,48
352,057	155,96
352,264	147,25
352,471	99,88
352,678	150,35
352,885	130,82
353,092	68,73
353,299	77,35
353,506	101,48
353,713	115,4
353,92	39,89
354,127	121,41
354,334	68,73
354,541	61,52
354,748	113,2
354,955	162,57
355,162	154,56
355,369	100,68
355,576	120,31
355,783	138,83
355,99	85,06
356,197	48,3
356,404	80,55
356,611	87,06
356,817	44,9
357,024	103,58
357,231	136,63
357,438	80,65
357,645	107,29
357,852	122,51
358,058	113,3
358,265	98,08
358,472	98,38
358,679	103,48
358,885	76,94
359,092	141,24
359,299	15,96
359,506	65,83
359,712	79,05
359,919	70,74
360,126	59,82
360,333	37,99
360,539	94,17
360,746	101,48
360,953	102,18
361,159	16,16
361,366	32,58
361,572	114,3
361,779	94,97
361,986	86,46
362,192	73,84
362,399	126,32
362,605	51,61
362,812	79,35
363,019	66,23
363,225	63,33
363,432	124,11
363,638	43
363,845	79,75
364,051	150,05
364,258	86,76
364,464	157,36
364,671	56,21
364,877	143,64
365,084	153,46
365,29	76,74
365,496	164,77
365,703	77,65
365,909	66,83
366,116	135,33
366,322	74,24
366,528	85,06
366,735	78,75
366,941	64,63
367,147	118,3
367,354	178,69
367,56	111,7
367,766	121,31
367,973	141,64
368,179	80,55
368,385	68,53
368,592	153,56
368,798	126,92
369,004	88,46
369,21	109,69
369,417	155,06
369,623	40,39
369,829	125,62
370,035	112,4
370,241	130,02
370,448	70,44
370,654	109,19
370,86	69,93
371,066	139,03
371,272	129,12
371,478	133,13
371,684	80,55
371,891	159,46
372,097	110,29
372,303	51,11
372,509	92,97
372,715	76,94
372,921	130,72
373,127	123,71
373,333	152,65
373,539	88,96
373,745	127,32
373,951	163,27
374,157	83,75
374,363	134,33
374,569	70,54
374,775	94,97
374,981	60,02
375,187	46,6
375,393	106,09
375,599	133,73
375,804	120,81
376,01	111,29
376,216	125,11
376,422	90,97
376,628	112,6
376,834	133,53
377,04	121,81
377,246	103,88
377,451	64,23
377,657	56,82
377,863	130,72
378,069	43,4
378,274	142,94
378,48	159,36
378,686	163,47
378,892	119,11
379,097	114,4
379,303	130,42
379,509	129,52
379,715	156,26
379,92	146,55
380,126	159,97
380,332	44,6
380,537	99,78
380,743	198,12
380,949	112,6
381,154	92,27
381,36	101,38
381,565	135,13
381,771	152,65
381,977	107,99
382,182	95,17
382,388	131,12
382,593	110,99
382,799	119,51
383,004	86,16
383,21	139,14
383,415	87,96
383,621	63,63
383,826	115
384,032	122,61
384,237	63,53
384,443	115,9
384,648	62,72
384,854	175,29
385,059	80,85
385,265	88,76
385,47	79,15
385,675	133,33
385,881	160,17
386,086	81,75
386,291	76,84
386,497	132,73
386,702	101,68
386,907	108,39
387,113	80,05
387,318	156,56
387,523	61,92
387,729	109,49
387,934	139,94
388,139	158,16
388,344	141,24
388,55	150,35
388,755	90,46
388,96	178,39
389,165	218,85
389,371	181
389,576	92,17
389,781	236,28
389,986	100,48
390,191	155,66
390,396	107,89
390,601	162,97
390,807	134,33
391,012	149,55
391,217	138,93
391,422	138,43
391,627	136,23
391,832	24,47
392,037	190,01
392,242	244,99
392,447	136,73
392,652	80,25
392,857	164,37
393,062	86,56
393,267	182,5
393,472	122,71
393,677	90,06
393,882	147,15
394,087	167,18
394,292	202,53
394,497	169,78
394,702	147,15
394,907	207,73
395,112	133,73
395,317	132,02
395,521	143,74
395,726	116,7
395,931	132,12
396,136	175,29
396,341	37,89
396,546	162,37
396,75	123,41
396,955	109,89
397,16	87,56
397,365	132,43
397,57	155,36
397,774	123,81
397,979	161,07
398,184	80,35
398,389	218,25
398,593	196,72
398,798	118,71
399,003	137,23
399,207	154,46
399,412	128,62
399,617	111,29
399,821	116,4
400,026	257,61
400,231	219,95
400,435	152,05
400,64	135,93
400,844	106,59
401,049	170,98
401,254	145,84
401,458	149,15
401,663	105,19
401,867	172,08
402,072	181,2
402,276	180,6
402,481	165,47
402,685	192,31
402,89	172,38
403,094	215,25
403,299	196,02
403,503	214,04
403,708	94,57
403,912	155,16
404,116	126,62
404,321	267,22
404,525	187,61
404,73	222,66
404,934	197,32
405,138	203,23
405,343	300,17
405,547	225,56
405,751	214,94
405,956	184,3
406,16	201,83
406,364	259,21
406,569	231,77
406,773	165,87
406,977	170,88
407,181	138,03
407,386	273,43
407,59	201,83
407,794	216,25
407,998	221,85
408,202	222,86
408,407	254,2
408,611	220,95
408,815	267,82
409,019	228,56
409,223	307,18
409,427	279,74
409,632	373,98
409,836	308,38
410,04	267,82
410,244	278,74
410,448	287,95
410,652	379,68
410,856	257,01
411,06	346,94
411,264	366,76
411,468	325,81
411,672	342,33
411,876	451,09
412,08	391,8
412,284	410,83
412,488	375,58
412,692	473,62
412,896	399,81
413,1	447,38
413,304	424,35
413,508	470,32
413,712	457,4
413,916	493,75
414,12	532
414,323	519,79
414,527	529,1
414,731	484,54
414,935	620,33
415,139	654,98
415,343	618,13
415,546	665,7
415,75	608,01
415,954	690,23
416,158	604,51
416,361	613,32
416,565	663,39
416,769	744,91
416,973	738,6
417,176	808,51
417,38	679,42
417,584	718,47
417,788	897,33
417,991	900,44
418,195	867,09
418,398	965,63
418,602	927,88
418,806	967,24
419,009	1005,89
419,213	1154,31
419,417	1102,83
419,62	1129,07
419,824	1198,57
420,027	1157,21
420,231	1200,07
420,434	1258,16
420,638	1274,08
420,841	1427,4
421,045	1430,91
421,248	1481,38
421,452	1492,8
421,655	1574,02
421,859	1656,43
422,062	1596,75
422,266	1790,23
422,469	1753,68
422,673	1842,7
422,876	1909,7
423,079	1830,39
423,283	2003,14
423,486	2111,79
423,689	2173,08
423,893	2308,18
424,096	2329,31
424,299	2420,84
424,503	2374,88
424,706	2452,29
424,909	2578,17
425,113	2680,82
425,316	2781,06
425,519	2787,67
425,722	3095,02
425,926	2953,31
426,129	3180,24
426,332	3055,56
426,535	3312,23
426,739	3304,32
426,942	3431,71
427,145	3441,22
427,348	3803,55
427,551	3822,88
427,754	3893,68
427,957	4002,74
428,161	4063,82
428,364	4263,41
428,567	4431,86
428,77	4510,17
428,973	4839,15
429,176	4950,61
429,379	4977,55
429,582	4985,56
429,785	5334,57
429,988	5309,63
430,191	5901,19
430,394	5712,41
430,597	6012,75
430,8	6256,5
431,003	6606,21
431,206	6248,79
431,409	6901,24
431,612	6827,23
431,815	7370,52
432,018	7748,17
432,221	8005,54
432,423	8018,56
432,626	8591,29
432,829	8579,87
433,032	9018,21
433,235	9304,32
433,438	9512,32
433,64	9316,44
433,843	9987,91
434,046	10048,3
434,249	9986,01
434,452	10726,78
434,654	10710,16
434,857	11078,99
435,06	11248,64
435,263	11825,88
435,465	12146,44
435,668	12234,17
435,871	12771,95
436,073	12724,58
436,276	13598,95
436,479	13534,65
436,681	14317,29
436,884	14062,82
437,087	14518,38
437,289	15026,32
437,492	15575,91
437,694	15641,81
437,897	15961,67
438,1	15966,38
438,302	16451,08
438,505	17033,32
438,707	17521,23
438,91	17642,21
439,112	18112,89
439,315	18130,52
439,517	19437,71
439,72	19741,55
439,922	20011,44
440,125	20496,34
440,327	20810,6
440,529	21038,33
440,732	23485,18
440,934	21737,44
441,137	23265,66
441,339	23322,64
441,541	24396,5
441,744	24055,7
441,946	25133,87
442,148	25826,37
442,351	27244,23
442,553	26361,65
442,755	28231,26
442,958	27712,41
443,16	28926,67
443,362	28420,73
443,565	29777,2
443,767	30141,03
443,969	31229,7
444,171	30648,46
444,373	32618,42
444,576	34007,13
444,778	34649,66
444,98	33508,21
445,182	35938,63
445,384	36050,29
445,586	38357,34
445,789	37291,59
445,991	38312,77
446,193	39209,07
446,395	40343,01
446,597	39900,17
446,799	40701,43
447,001	42608,9
447,203	43771,08
447,405	43012,18
447,607	44304,96
447,809	45570,19
448,011	45726,62
448,213	46309,96
448,415	46830,62
448,617	46842,84
448,819	48697,93
449,021	46511,36
449,223	51707,09
449,425	49285,38
449,627	52401,09
449,829	49605,64
450,031	54496,93
450,233	50958,7
450,435	52911,93
450,636	52633,13
450,838	52523,07
451,04	54139,11
451,242	52809,49
451,444	52391,28
451,646	53793,71
451,847	54809,59
452,049	54218,33
452,251	54893,41
452,453	55637,99
452,654	55042,12
452,856	55459,73
453,058	58643,54
453,26	56113,68
453,461	55239,41
453,663	55240,21
453,865	58069,91
454,066	59281,97
454,268	54657,97
454,47	54167,76
454,671	54562,33
454,873	53829,97
455,074	52319,58
455,276	54248,97
455,478	51149,08
455,679	53027,6
455,881	53908,78
456,082	53124,74
456,284	50865,37
456,485	51515,61
456,687	51228,09
456,888	51643,9
457,09	49379,41
457,291	49151,58
457,493	48553,02
457,694	49937,42
457,896	47438,2
458,097	47082,18
458,299	46566,64
458,5	44883,6
458,701	44584,06
458,903	46175,87
459,104	44634,64
459,306	43866,92
459,507	42635,84
459,708	43458,73
459,91	41603,74
460,111	41237,81
460,312	42861,07
460,514	39666,03
460,715	40413,02
460,916	41276,47
461,117	38613,91
461,319	38188,69
461,52	38320,48
461,721	37540,05
461,922	36503,05
462,124	35374,31
462,325	36649,16
462,526	35578,11
462,727	33947,34
462,928	35112,63
463,129	33213,18
463,331	34546,81
463,532	33152,99
463,733	32917,45
463,934	32288,94
464,135	33906,99
464,336	30627,63
464,537	33525,43
464,738	31633,09
464,939	30410,12
465,14	30667,49
465,341	32742
465,542	31059,56
465,743	30625,63
465,944	29171,32
466,145	30749,01
466,346	30678,61
466,547	29170,62
466,748	28191
466,949	29551,77
467,15	28829,02
467,351	27814,75
467,552	28686,92
467,753	27506,31
467,953	27572,1
468,154	27009,59
468,355	25919,31
468,556	26385,98
468,757	26771,24
468,958	26605,7
469,158	25847,6
469,359	25588,63
469,56	25439,71
469,761	24921,36
469,962	26201,11
470,162	25902,08
470,363	25394,35
470,564	25484,08
470,764	24492,94
470,965	24403,91
471,166	23727,73
471,366	24994,17
471,567	23641
471,768	24085,65
471,968	23426,59
472,169	22977,74
472,37	22220,14
472,57	22663,89
472,771	22735,09
472,971	22880,1
473,172	22263,11
473,373	22190,5
473,573	21369,31
473,774	21708,9
473,974	21968,68
474,175	22474,71
474,375	21258,45
474,576	20850,16
474,776	20770,54
474,977	20885,51
475,177	20409,62
475,377	19685,37
475,578	19432,7
475,778	19819,46
475,979	18870,69
476,179	19418,18
476,379	19390,84
476,58	18857,17
476,78	18497,65
476,981	18338,72
477,181	18232,36
477,381	18016,75
477,582	17729,73
477,782	18340,32
477,982	17751,47
478,182	17830,38
478,383	17417,28
478,583	17545,37
478,783	17201,27
478,983	17540,86
479,184	16745,01
479,384	17090,31
479,584	16520,38
479,784	16717,67
479,984	16396,3
480,184	16269,62
480,385	16343,93
480,585	16817,31
480,785	16008,34
480,985	16117,7
481,185	15836,19
481,385	15997,82
481,585	15466,55
481,785	16022,16
481,985	15716,02
482,185	15960,47
482,385	15171,53
482,585	15283,69
482,785	15368,11
482,985	15090,51
483,185	14920,36
483,385	15073,28
483,585	14864,38
483,785	14907,14
483,985	14472,81
484,185	14849,96
484,385	14522,59
484,585	14569,55
484,785	14330,31
484,985	14635,35
485,185	14377,98
485,384	14473,61
485,584	14328,9
485,784	14249,29
485,984	14001,73
486,184	14215,84
486,383	14190,3
486,583	14115,9
486,783	13892,37
486,983	13889,17
487,183	13775,6
487,382	13830,28
487,582	13691,58
487,782	13817,96
487,981	13733,74
488,181	13808,35
488,381	13601,75
488,58	13722,33
488,78	13534,85
488,98	13548,07
489,179	13410,07
489,379	13526,04
489,579	13288
489,778	13647,32
489,978	13424,39
490,177	13337,97
490,377	13477,77
490,576	13270,27
490,776	13318,84
490,975	13488,99
491,175	13389,34
491,374	13301,32
491,574	13241,23
491,773	13175,53
491,973	13132,87
492,172	13382,53
492,372	13214,49
492,571	13311,03
492,771	13279,18
492,97	13471,96
493,169	13272,37
493,369	13718,32
493,568	13363,61
493,767	13542,26
493,967	13487,08
494,166	13733,84
494,365	13557,29
494,565	13558,09
494,764	13681,67
494,963	13849,81
495,163	13886,56
495,362	13881,76
495,561	13751,17
495,76	14378,58
495,959	13840,1
496,159	14013,15
496,358	14049,7
496,557	14295,56
496,756	14159,96
496,955	14284,24
497,155	14358,45
497,354	14407,02
497,553	14295,46
497,752	14624,93
497,951	14628,44
498,15	14767,34
498,349	14454,79
498,548	14859,17
498,747	14907,74
498,946	14964,93
499,145	14974,04
499,344	15183,34
499,543	15190,05
499,742	15419,89
499,941	15307,32
500,14	15541,16
500,339	15454,34
500,538	15844,9
500,737	15863,43
500,936	15996,82
501,135	16098,47
501,334	16433,36
501,533	16399,81
501,732	16696,04
501,931	16641,76
502,129	16774,55
502,328	16880,1
502,527	17096,72
502,726	16823,02
502,925	17323,04
503,123	17501,2
503,322	17801,24
503,521	17675,26
503,72	17896,98
503,919	18061,62
504,117	18207,53
504,316	18091,36
504,515	18410,52
504,713	18695,33
504,912	18728,58
505,111	18837,04
505,309	19108,83
505,508	19063,97
505,707	19508,81
505,905	19219,49
506,104	19792,83
506,302	19880,15
506,501	20051,7
506,7	20068,22
506,898	20499,35
507,097	20408,52
507,295	20753,92
507,494	20556,93
507,692	21048,45
507,891	21208,58
508,089	21477,47
508,288	21441,62
508,486	21803,74
508,685	21639,4
508,883	22095,66
509,082	22107,68
509,28	22561,34
509,478	22342,12
509,677	22954,61
509,875	23184,74
510,073	23630,19
510,272	23559,29
510,47	23869,74
510,669	23796,33
510,867	24325,5
511,065	24042,99
511,263	24663,69
511,462	24782,26
511,66	25045,64
511,858	25121,35
512,056	25678,86
512,255	25469,45
512,453	25952,55
512,651	25946,85
512,849	26347,53
513,048	26084,75
513,246	26661,68
513,444	26880,9
513,642	27075,68
513,84	27049,95
514,038	27601,44
514,236	27589,53
514,435	28051,8
514,633	27888,06
514,831	28508,66
515,029	28631,34
515,227	29040,03
515,425	28805,99
515,623	29302,81
515,821	29522,73
516,019	29810,55
516,217	29716,41
516,415	30098,97
516,613	29863,92
516,811	30350,33
517,009	30399,5
517,207	30944,79
517,405	30972,63
517,602	31408,16
517,8	31129,66
517,998	31592,43
518,196	31993,91
518,394	32147,13
518,592	31911,49
518,79	32518,57
518,987	32397,6
519,185	32860,07
519,383	32880,5
519,581	33286,79
519,779	32824,02
519,976	33756,47
520,174	33291,29
520,372	33914,1
520,57	33474,86
520,767	34175,07
520,965	33848
521,163	34477,81
521,36	34564,74
521,558	34646,46
521,756	34329,3
521,953	34711,35
522,151	34544,51
522,349	34715,36
522,546	34689,62
522,744	34959,01
522,941	34663,78
523,139	35217,79
523,336	35478,66
523,534	35882,45
523,731	35270,66
523,929	35596,93
524,126	35446,22
524,324	35579,11
524,521	35797,73
524,719	35807,44
524,916	35631,08
525,114	35614,86
525,311	35624,37
525,509	36330,4
525,706	35920,9
525,903	36205,52
526,101	36376,16
526,298	36524,48
526,496	36193,3
526,693	36856,46
526,89	36182,38
527,088	36690,12
527,285	36229,75
527,482	36591,58
527,679	36348,72
527,877	36771,94
528,074	36489,53
528,271	37100,92
528,468	36986,85
528,666	37080,08
528,863	36713,15
529,06	37277,97
529,257	36690,32
529,454	36752,11
529,652	36698,23
529,849	37057,65
530,046	36789,96
530,243	37086,69
530,44	36695,73
530,637	36985,45
530,834	36652,47
531,031	36780,05
531,228	36843,54
531,425	37412,87
531,622	37174,32
531,819	37540,55
532,016	37452,52
532,213	37416,87
532,41	37670,54
532,607	37813,85
532,804	37675,45
533,001	37783,2
533,198	37686,16
533,395	37845,39
533,592	37248,43
533,789	38413,22
533,986	37873,74
534,183	38505,75
534,38	38032,17
534,576	38319,28
534,773	37632,89
534,97	38035,57
535,167	37675,15
535,364	38301,15
535,561	37663,23
535,757	38305,16
535,954	37971,08
536,151	38142,83
536,348	37908,69
536,544	37941,03
536,741	37544,46
536,938	38134,71
537,134	37427,89
537,331	38125,8
537,528	37381,92
537,724	37808,54
537,921	36966,72
538,118	37945,54
538,314	36832,93
538,511	37578,61
538,707	36905,13
538,904	37437,4
539,101	36937,28
539,297	37652,92
539,494	37130,46
539,69	37699,48
539,887	37657,62
540,083	38197,91
540,28	37835,08
540,476	37633,39
540,673	37112,73
540,869	37952,25
541,066	37667,44
541,262	38107,97
541,458	38073,73
541,655	38227,25
541,851	38223,64
542,048	38302,66
542,244	38047,29
542,44	38138,22
542,637	37746,95
542,833	38694,83
543,029	38286,83
543,226	38377,47
543,422	38078,53
543,618	38384,68
543,814	38023,05
544,011	38342,21
544,207	37706,69
544,403	38098,16
544,599	38003,12
544,796	38065,51
544,992	37689,57
545,188	38025,05
545,384	37748,85
545,58	37991,41
545,776	37700,18
545,972	37759,87
546,169	37487,28
546,365	37904,38
546,561	37680,56
546,757	37863,12
546,953	37609,25
547,149	37951,75
547,345	37316,23
547,541	37825,57
547,737	37005,78
547,933	37400,45
548,129	36911,24
548,325	37772,19
548,521	37144,98
548,717	37773,09
548,913	36872,38
549,109	37553,87
549,305	37063,86
549,501	37339,16
549,697	37137,97
549,892	37447,82
550,088	37105,32
550,284	37652,51
550,48	37388,93
550,676	38017,14
550,872	36894,72
551,067	37492,58
551,263	36877,19
551,459	37456,13
551,655	37135,37
551,85	37262,45
552,046	37286,08
552,242	37230,2
552,438	36849,85
552,633	37222,79
552,829	36936,48
553,025	37493,38
553,22	36972,93
553,416	37008,88
553,612	36889,41
553,807	37426,89
554,003	37307,51
554,198	37207,17
554,394	36679,2
554,59	37250,53
554,785	36274,82
554,981	37049,44
555,176	36679,9
555,372	36932,07
555,567	36888,71
555,763	37206,57
555,958	36518,37
556,154	36678,9
556,349	36648,26
556,545	36559,83
556,74	36248,98
556,936	36483,72
557,131	36121,7
557,326	36035,67
557,522	36177,48
557,717	36375,16
557,912	35990,2
558,108	36322,49
558,303	35893,36
558,498	36508,66
558,694	36035,97
558,889	36205,52
559,084	36256,19
559,28	36595,48
559,475	36397,3
559,67	36669,99
559,865	36349,73
560,061	36272,41
560,256	36194,6
560,451	36024,15
560,646	35465,44
560,841	36192,8
561,037	35335,86
561,232	35660,93
561,427	35625,18
561,622	36000,32
561,817	35688,37
562,012	36023,65
562,207	36024,55
562,402	36020,85
562,597	35527,83
562,792	35686,36
562,987	35684,06
563,182	35446,72
563,377	35310,52
563,572	36153,84
563,767	35373,91
563,962	35732,63
564,157	35598,64
564,352	35542,66
564,547	35628,98
564,742	35901,88
564,937	35399,75
565,132	35669,64
565,327	35226,4
565,522	35316,83
565,716	34988,85
565,911	35434,7
566,106	35163,51
566,301	35579,81
566,496	34971,83
566,691	35437,4
566,885	34952,6
567,08	35297,9
567,275	34776,15
567,47	35281,58
567,664	34655,67
567,859	35218,49
568,054	34891,91
568,248	35163,01
568,443	35103,12
568,638	35396,34
568,832	34771,84
569,027	35027,41
569,222	34581,06
569,416	34675
569,611	34633,04
569,805	34942,89
570	34743
570,195	34516,07
570,389	34600,99
570,584	34397,8
570,778	34085,24
570,973	34968,12
571,167	34032,07
571,362	34675,4
571,556	34118,29
571,751	34388,88
571,945	33738,44
572,139	34115,39
572,334	33797,93
572,528	33940,23
572,723	33476,26
572,917	33864,72
573,111	33611,86
573,306	33751,26
573,5	33806,84
573,694	33800,43
573,889	33569,3
574,083	34224,35
574,277	33571,5
574,472	33756,77
574,666	33557,18
574,86	33980,19
575,054	33694,88
575,249	34032,97
575,443	33470,05
575,637	33582,92
575,831	33326,14
576,025	33700,29
576,219	33095,81
576,414	33717,81
576,608	33308,82
576,802	33549,87
576,996	33090,8
577,19	33188,14
577,384	33011,59
577,578	33065,37
577,772	32593,38
577,966	33517,42
578,16	32716,56
578,354	33131,96
578,548	32505,05
578,742	32932,57
578,936	32610,31
579,13	32917,55
579,324	32579,86
579,518	32707,45
579,712	32141,03
579,906	32581,46
580,1	32080,94
580,294	32637,44
580,488	31839,09
580,682	32320,29
580,875	32050,09
581,069	32119,59
581,263	31884,45
581,457	32238,07
581,651	31934,23
581,845	32026,36
582,038	31579,91
582,232	32053,4
582,426	31271,77
582,62	32130,11
582,813	31459,84
583,007	31874,54
583,201	31197,96
583,394	31664,94
583,588	31584,02
583,782	31717,11
583,975	31697,18
584,169	32105,77
584,363	31716,71
584,556	31796,63
584,75	31254,44
584,943	31453,23
585,137	31334,76
585,33	31281,28
585,524	31027,61
585,718	31431,5
585,911	30695,53
586,105	31095,61
586,298	30525,78
586,491	30915,55
586,685	30735,49
586,878	30893,92
587,072	30444,57
587,265	30695,33
587,459	30265,31
587,652	30955,51
587,845	30107,78
588,039	30649,96
588,232	30254,39
588,426	30241,17
588,619	29732,43
588,812	29839,59
589,005	29606,05
589,199	29983,1
589,392	29679,06
589,585	29997,42
589,779	29630,49
589,972	29968,98
590,165	29596,74
590,358	29768,49
590,551	29394,54
590,745	29507,41
590,938	29279,28
591,131	29566,99
591,324	28080,74
591,517	29353,48
591,71	29017,3
591,904	29222,19
592,097	28901,63
592,29	29097,71
592,483	28405,71
592,676	28664,49
592,869	28179,68
593,062	28384,78
593,255	27999,22
593,448	28285,54
593,641	28110,68
593,834	28303,06
594,027	27924,21
594,22	28123,3
594,413	27716,81
594,606	28007,33
594,799	27633,59
594,992	27893,37
595,184	27518,62
595,377	27652,32
595,57	27611,66
595,763	27841,49
595,956	27309,22
596,149	27552,77
596,341	27580,21
596,534	27446,62
596,727	27285,29
596,92	27335,76
597,113	27077,38
597,305	27228,8
597,498	26836,74
597,691	26910,64
597,883	26673,1
598,076	26696,53
598,269	26721,07
598,462	26830,83
598,654	26617,62
598,847	26476,51
599,039	26327
599,232	26449,07
599,425	26115,09
599,617	26064,92
599,81	26088,75
600,002	26005,63
600,195	25466,85
600,387	26005,23
600,58	25518,02
600,772	25785,01
600,965	25319,84
601,157	25707,4
601,35	25502,5
601,542	25564,39
601,735	25267,46
601,927	25647,71
602,12	25047,84
602,312	25416,58
602,504	24886,01
602,697	24856,27
602,889	24926,87
603,082	24864,78
603,274	24724,57
603,466	24792,47
603,659	24198,51
603,851	24326,9
604,043	24011,64
604,235	24392,59
604,428	23781,51
604,62	24235,97
604,812	24122,3
605,004	24317,88
605,197	23841,39
605,389	24143,23
605,581	23562,79
605,773	23813,85
605,965	23535,85
606,157	23780,31
606,349	23387,24
606,542	23596,84
606,734	23282,28
606,926	23510,11
607,118	22990,56
607,31	23157
607,502	22546,62
607,694	23008,99
607,886	22331,2
608,078	22769,64
608,27	22271,32
608,462	22458,39
608,654	22114,79
608,846	22477,42
609,038	22065,42
609,23	22469,1
609,422	22204,42
609,614	22180,49
609,805	22051,6
609,997	22157,55
610,189	22129,81
610,381	22414,23
610,573	21915,9
610,765	22244,38
610,957	21837,59
611,148	21860,42
611,34	21540,46
611,532	22058,61
611,724	21752,27
611,915	21789,52
612,107	21549,87
612,299	21966,08
612,491	21511,72
612,682	21771,39
612,874	21333,86
613,066	21588,73
613,257	21181,34
613,449	21564,39
613,64	21340,77
613,832	21252,04
614,024	21352,19
614,215	21362,7
614,407	21378,12
614,598	21355,09
614,79	21219,89
614,981	21353,99
615,173	21148,09
615,364	21407,27
615,556	21121,95
615,747	21575,71
615,939	20896,42
616,13	21313,13
616,322	21165,11
616,513	21198,06
616,705	20971,33
616,896	21390,14
617,087	20936,98
617,279	21307,12
617,47	20960,72
617,661	21408,77
617,853	20989,76
618,044	21060,76
618,235	20921,56
618,427	20912,35
618,618	20662,59
618,809	20827,32
619	20544,51
619,192	20729,08
619,383	20410,02
619,574	20729,58
619,765	20462,1
619,957	20834,33
620,148	20487,33
620,339	20837,04
620,53	20425,44
620,721	20472,31
620,912	20109,28
621,103	20619,92
621,294	20263,71
621,485	20418,63
621,677	20113,69
621,868	20350,33
622,059	19876,05
622,25	20281,03
622,441	19912,7
622,632	20008,44
622,823	19686,77
623,014	19707,8
623,205	19566
623,395	19390,64
623,586	19277,88
623,777	19619,57
623,968	19114,64
624,159	19279,88
624,35	19027,42
624,541	19066,07
624,732	18940,59
624,923	19008,99
625,113	18649,97
625,304	18569,45
625,495	18442,27
625,686	18461,8
625,877	18422,34
626,067	18314,18
626,258	18148,24
626,449	18208,23
626,639	17854,11
626,83	18050,6
627,021	17679,16
627,211	17739,15
627,402	17516,33
627,593	17555,68
627,783	17502,51
627,974	17493,69
628,165	17208,78
628,355	17218,29
628,546	16983,95
628,736	17119,25
628,927	16655,88
629,117	16877,9
629,308	16684,42
629,498	16664,19
629,689	16447,08
629,879	16679,51
630,07	16442,67
630,26	16287,14
630,451	16243,08
630,641	16338,32
630,832	15938,74
631,022	16033,28
631,212	15831,18
631,403	15792,83
631,593	15490,09
631,784	15644,51
631,974	15447,03
632,164	15708,8
632,355	15289,4
632,545	15478,37
632,735	15282,29
632,925	15120,85
633,116	15032,42
633,306	14923,57
633,496	14870,89
633,686	15123,06
633,876	14890,62
634,067	14939,59
634,257	14714,46
634,447	14789,37
634,637	14669,2
634,827	14647,27
635,017	14283,54
635,208	14630,04
635,398	14399,01
635,588	14600,4
635,778	14207,23
635,968	14599,6
636,158	14298,96
636,348	14360,25
636,538	14157,46
636,728	14327,6
636,918	14056,01
637,108	14175,28
637,298	13869,04
637,488	14002,43
637,678	13840,3
637,868	13758,68
638,057	13705,2
638,247	13735,54
638,437	13543,67
638,627	13811,45
638,817	13295,81
639,007	13528,04
639,197	13240,63
639,386	13201,17
639,576	12992,57
639,766	13070,78
639,956	13053,56
640,145	13026,42
640,335	12806,9
640,525	13043,84
640,715	12828,23
640,904	12832,74
641,094	12504,06
641,284	12700,14
641,473	12494,04
641,663	12500,95
641,853	12362,35
642,042	12452,89
642,232	12156,56
642,421	12220,95
642,611	12290,15
642,801	12267,32
642,99	12086,15
643,18	12260,11
643,369	12034,78
643,559	11981,4
643,748	11983,1
643,938	11870,04
644,127	11649,42
644,317	11731,04
644,506	11584,73
644,695	11705,5
644,885	11649,22
645,074	11503,11
645,264	11415,38
645,453	11462,75
645,642	11417,58
645,832	11433,41
646,021	11315,04
646,21	11430,1
646,4	11147,39
646,589	11329,66
646,778	11164,02
646,967	11152,8
647,157	10905,54
647,346	11180,64
647,535	10926,07
647,724	11013,6
647,913	10870,99
648,103	10856,47
648,292	10641,56
648,481	10743,11
648,67	10594,19
648,859	10547,92
649,048	10550,33
649,237	10400,21
649,427	10340,32
649,616	10383,08
649,805	10191,41
649,994	10244,88
650,183	10087,06
650,372	10270,72
650,561	9985,61
650,75	10200,32
650,939	9933,23
651,128	10015,65
651,317	9849,41
651,506	9917,21
651,694	9770,5
651,883	9916,41
652,072	9616,27
652,261	9737,35
652,45	9546,47
652,639	9749,97
652,828	9605,26
653,016	9716,72
653,205	9448,33
653,394	9575,81
653,583	9361
653,772	9524,94
653,96	9224,1
654,149	9243,43
654,338	9064,87
654,527	9218
654,715	9045,45
654,904	9172,83
655,093	8957,92
655,281	9037,23
655,47	8899,03
655,658	8968,83
655,847	8805,1
656,036	8868,09
656,224	8762,64
656,413	8822,32
656,601	8638,96
656,79	8688,03
656,978	8508,47
657,167	8602,4
657,355	8456,49
657,544	8655,98
657,732	8442,87
657,921	8486,03
658,109	8273,03
658,298	8411,13
658,486	8192,81
658,675	8287,85
658,863	8355,95
659,051	8235,87
659,24	8050,1
659,428	8145,94
659,616	8008,64
659,805	7939,34
659,993	7771,7
660,181	7932,93
660,37	7760,38
660,558	7752,67
660,746	7752,57
660,934	7744,26
661,123	7608,76
661,311	7692,78
661,499	7604,26
661,687	7554,48
661,875	7461,55
662,064	7438,52
662,252	7345,38
662,44	7343,08
662,628	7320,55
662,816	7401,56
663,004	7361,1
663,192	7237,83
663,38	7250,44
663,568	7282,99
663,756	7170,03
663,944	7174,83
664,132	7086,41
664,32	7098,12
664,508	6920,67
664,696	7010,7
664,884	6887,42
665,072	6874
665,26	6730,59
665,448	6932,98
665,636	6731,19
665,824	6825,63
666,012	6587,58
666,199	6578,27
666,387	6524,59
666,575	6583,68
666,763	6502,16
666,951	6506,16
667,139	6481,23
667,326	6510,37
667,514	6296,76
667,702	6403,82
667,889	6342,53
668,077	6311,28
668,265	6174,18
668,453	6252,7
668,64	6152,95
668,828	6188,3
669,016	6005,34
669,203	6112,69
669,391	6003,04
669,578	6098,67
669,766	5955,07
669,954	5958,37
670,141	5909,3
670,329	5786,52
670,516	5867,54
670,704	5916,11
670,891	5730,54
671,079	5774,6
671,266	5780,91
671,454	5776,91
671,641	5635,5
671,828	5714,02
672,016	5548,08
672,203	5631,5
672,391	5567,2
672,578	5545,77
672,765	5424
672,953	5603,96
673,14	5508,42
673,327	5481,68
673,515	5431,81
673,702	5444,53
673,889	5275,88
674,077	5315,44
674,264	5303,92
674,451	5269,47
674,638	5186,95
674,825	5142,59
675,013	5079,9
675,2	5175,44
675,387	5030,23
675,574	4991,57
675,761	5036,73
675,948	5060,37
676,136	5033,83
676,323	4989,77
676,51	4863,48
676,697	5074,69
676,884	4848,46
677,071	4907,55
677,258	4857,98
677,445	4800,99
677,632	4748,72
677,819	4707,26
678,006	4659,79
678,193	4656,48
678,38	4617,43
678,567	4657,69
678,754	4677,91
678,94	4613,32
679,127	4545,82
679,314	4549,83
679,501	4488,64
679,688	4559,94
679,875	4435,36
680,062	4489,64
680,248	4409,43
680,435	4410,83
680,622	4372,77
680,809	4342,63
680,995	4264,62
681,182	4318,79
681,369	4214,44
681,556	4273,43
681,742	4229,76
681,929	4245,99
682,116	4175,89
682,302	4054,91
682,489	4092,67
682,675	4031,18
682,862	4100,08
683,049	4154,96
683,235	4025,97
683,422	3980,7
683,608	4023,27
683,795	3954,07
683,981	3818,07
684,168	3929,93
684,354	3942,65
684,541	3956,47
684,727	3963,38
684,914	3959,77
685,1	3832,69
685,287	3816,37
685,473	3783,12
685,659	3786,42
685,846	3752,27
686,032	3696,19
686,218	3638,21
686,405	3691,78
686,591	3683,87
686,777	3669,45
686,964	3669,55
687,15	3779,01
687,336	3627,09
687,522	3627,39
687,709	3441,72
687,895	3613,07
688,081	3491,8
688,267	3502,11
688,454	3469,16
688,64	3439,12
688,826	3458,15
689,012	3403,37
689,198	3366,41
689,384	3423,3
689,57	3304,52
689,756	3332,86
689,942	3277,78
690,128	3350,49
690,314	3274,28
690,501	3235,32
690,687	3290,7
690,873	3266,37
691,058	3184,55
691,244	3207,58
691,43	3080,3
691,616	3252,65
691,802	3107,34
691,988	3183,65
692,174	3142,19
692,36	3120,96
692,546	3006,79
692,732	3129,97
692,917	3091,11
693,103	3094,02
693,289	3088,61
693,475	3030,43
693,661	2974,04
693,846	3055,96
694,032	2865,99
694,218	2962,73
694,404	2973,54
694,589	2932,18
694,775	2926,58
694,961	2894,33
695,146	2772,85
695,332	2852,77
695,518	2880,91
695,703	2836,65
695,889	2797,39
696,074	2767,75
696,26	2704,25
696,446	2707,46
696,631	2782,17
696,817	2800,19
697,002	2708,06
697,188	2694,34
697,373	2639,86
697,559	2648,97
697,744	2611,02
697,93	2704,55
698,115	2520,39
698,3	2554,04
698,486	2516,28
698,671	2632,55
698,857	2477,52
699,042	2443,98
699,227	2552,43
699,413	2501,46
699,598	2457,9
699,783	2515,68
699,969	2508,27
700,154	2439,37
700,339	2373,67
700,524	2409,03
700,71	2383,79
700,895	2369,17
701,08	2463,5
701,265	2320,7
701,45	2428,55
701,636	2344,03
701,821	2294,96
702,006	2307,28
702,191	2269,42
702,376	2230,17
702,561	2233,57
702,746	2263,11
702,931	2342,03
703,116	2319,7
703,301	2228,26
703,486	2251,1
703,671	2234,27
703,856	2153,56
704,041	2212,64
704,226	2260,21
704,411	2079,45
704,596	1994,72
704,781	2111,89
704,966	2175,99
705,151	2135,03
705,336	2078,45
705,521	2094,87
705,706	2167,98
705,89	2039,49
706,075	2077,54
706,26	2077,34
706,445	2050,21
706,63	1955,67
706,814	2051,81
706,999	2018,56
707,184	2012,85
707,368	1992,62
707,553	2010,95
707,738	1922,72
707,923	2033,28
708,107	1941,55
708,292	1979,4
708,476	2001,33
708,661	1942,55
708,846	1974,09
709,03	1961,68
709,215	1922,82
709,399	1860,93
709,584	1810,56
709,768	1893,38
709,953	1849,21
710,137	1876,85
710,322	1774,81
710,506	1783,62
710,691	1797,64
710,875	1805,35
711,06	1769,2
711,244	1792,03
711,429	1745,86
711,613	1716,42
711,797	1731,44
711,982	1724,33
712,166	1763,89
712,35	1677,67
712,535	1740,46
712,719	1812,86
712,903	1692,19
713,088	1674,06
713,272	1677,67
713,456	1652,33
713,64	1626,99
713,824	1581,93
714,009	1701,9
714,193	1574,02
714,377	1548,38
714,561	1585,63
714,745	1672,26
714,929	1679,87
715,113	1590,54
715,298	1562
715,482	1622,29
715,666	1492,3
715,85	1517,03
716,034	1508,22
716,218	1445,23
716,402	1496,6
716,586	1493,2
716,77	1500,01
716,954	1508,92
717,138	1456,54
717,322	1381,24
717,506	1451,54
717,689	1428,8
717,873	1401,16
718,057	1425
718,241	1426,4
718,425	1415,49
718,609	1432,61
718,793	1399,26
718,976	1403,87
719,16	1427,4
719,344	1422,7
719,528	1430,51
719,711	1376,13
719,895	1415,49
720,079	1440,52
720,263	1391,95
720,446	1306,63
720,63	1236,13
720,814	1211,89
720,997	1280,89
721,181	1287,7
721,364	1296,51
721,548	1291,21
721,732	1227,71
721,915	1317,44
722,099	1254,05
722,282	1280,99
722,466	1248,04
722,649	1165,62
722,833	1224,51
723,016	1258,16
723,2	1230,02
723,383	1203,48
723,567	1221,4
723,75	1197,27
723,934	1179,04
724,117	1174,14
724,3	1134,58
724,484	1140,79
724,667	1091,01
724,85	1166,32
725,034	1147,2
725,217	1123,16
725,4	1150,5
725,584	1236,73
725,767	1058,27
725,95	1158,01
726,133	1046,15
726,317	1122,36
726,5	1068,48
726,683	1127,17
726,866	1105,14
727,049	1058,37
727,232	1076,79
727,416	1070,69
727,599	1082,8
727,782	979,75
727,965	1039,74
728,148	1157,81
728,331	1147,7
728,514	1077,09
728,697	999,38
728,88	989,77
729,063	1042,74
729,246	966,33
729,429	1004,59
729,612	1007,89
729,795	1017,31
729,978	1052,66
730,161	1051,56
730,344	1005,29
730,526	1012
730,709	1032,63
730,892	984,46
731,075	932,18
731,258	966,94
731,441	998,88
731,623	960,33
731,806	910,15
731,989	927,58
732,172	841,95
732,354	923,37
732,537	1018,01
732,72	860,38
732,903	954,02
733,085	915,26
733,268	954,72
733,451	868,69
733,633	940,6
733,816	926,08
733,998	863,99
734,181	767,35
734,364	857,08
734,546	849,26
734,729	877,1
734,911	831,34
735,094	851,77
735,276	862,58
735,459	858,08
735,641	773,25
735,824	796,79
736,006	827,13
736,188	863,69
736,371	788,18
736,553	825,83
736,736	826,33
736,918	778,86
737,1	798,89
737,283	714,37
737,465	790,78
737,647	774,46
737,83	705,56
738,012	806,3
738,194	799,49
738,376	710,36
738,559	716,17
738,741	781,27
738,923	744,81
739,105	728,59
739,287	748,02
739,469	776,26
739,652	765,14
739,834	729,89
740,016	764,84
740,198	766,84
740,38	704,15
740,562	670,41
740,744	787,78
740,926	698,25
741,108	683,92
741,29	702,25
741,472	681,52
741,654	697,24
741,836	724,38
742,018	715,57
742,2	739,1
742,382	666,8
742,564	717,67
742,746	690,73
742,928	693,04
743,109	651,78
743,291	577,47
743,473	604,71
743,655	609,82
743,837	624,84
744,019	641,06
744,2	646,87
744,382	633,95
744,564	562,75
744,746	549,83
744,927	653,38
745,109	577,97
745,291	611,72
745,472	585,18
745,654	637,26
745,836	615,53
746,017	591,09
746,199	632,05
746,38	603,31
746,562	498,86
746,744	605,91
746,925	579,47
747,107	615,33
747,288	599,9
747,47	529,3
747,651	503,56
747,833	496,05
748,014	565,45
748,195	628,24
748,377	564,15
748,558	563,15
748,74	546,12
748,921	575,57
749,102	577,67
749,284	501,16
749,465	606,41
749,646	531,1
749,828	496,35
750,009	536,11
750,19	545,32
750,372	601,61
750,553	546,83
750,734	522,49
750,915	431,16
751,096	561,75
751,278	518,28
751,459	580,47
751,64	492,15
751,821	553,24
752,002	457,2
752,183	495,05
752,364	475,82
752,546	506,17
752,727	464,31
752,908	505,27
753,089	446,18
753,27	518,89
753,451	453,99
753,632	455,59
753,813	426,15
753,994	443,58
754,175	445,98
754,356	488,14
754,536	477,53
754,717	397,11
754,898	500,86
755,079	510,17
755,26	487,64
755,441	494,35
755,622	470,92
755,802	514,28
755,983	406,32
756,164	439,87
756,345	472,52
756,526	448,28
756,706	460,2
756,887	472,92
757,068	532,71
757,248	461,7
757,429	457,3
757,61	423,55
757,79	475,62
757,971	455,19
758,152	425,25
758,332	360,26
758,513	446,88
758,693	442,27
758,874	487,94
759,055	494,35
759,235	430,46
759,416	403,02
759,596	448,18
759,777	523,19
759,957	358,75
760,137	500,26
760,318	454,49
760,498	483,93
760,679	427,35
760,859	424,25
761,039	487,84
761,22	472,02
761,4	445,68
761,581	518,28
761,761	398,71
761,941	530
762,121	430,66
762,302	392,2
762,482	465,71
762,662	382,69
762,842	413,73
763,023	447,48
763,203	341,73
763,383	433,36
763,563	426,55
763,743	427,75
763,923	398,91
764,104	458,1
764,284	387,8
764,464	399,41
764,644	389
764,824	418,84
765,004	359,25
765,184	414,03
765,364	372,17
765,544	377,48
765,724	383,49
765,904	411,93
766,084	386,19
766,264	410,33
766,444	409,53
766,624	385,09
766,804	342,73
766,983	439,27
767,163	459,3
767,343	374,28
767,523	452,99
767,703	459,6
767,883	435,16
768,062	348,14
768,242	364,26
768,422	374,18
768,602	398,71
768,781	337,42
768,961	329,31
769,141	338,92
769,32	358,65
769,5	375,58
769,68	346,34
769,859	359,96
770,039	382,39
770,219	365,86
770,398	283,14
770,578	373,98
770,757	337,82
770,937	359,05
771,116	314,79
771,296	346,03
771,475	307,28
771,655	273,13
771,834	351,14
772,014	322,1
772,193	449,48
772,373	328,81
772,552	272,93
772,731	272,93
772,911	295,86
773,09	331,71
773,269	315,29
773,449	345,03
773,628	347,84
773,807	275,83
773,987	297,36
774,166	273,83
774,345	322,9
774,524	247,19
774,704	265,72
774,883	273,83
775,062	260,91
775,241	357,55
775,42	289,95
775,6	343,93
775,779	238,58
775,958	278,34
776,137	328,91
776,316	285,15
776,495	307,58
776,674	215,55
776,853	254,2
777,032	270,93
777,211	287,85
777,39	201,63
777,569	274,53
777,748	286,15
777,927	233,27
778,106	239,38
778,285	243,69
778,464	226,36
778,643	249,5
778,822	218,15
779	311,69
779,179	225,86
779,358	277,03
779,537	228,16
779,716	207,63
779,894	244,39
780,073	242,38
780,252	188,51
780,431	207,23
780,609	200,52
780,788	262,21
780,967	146,65
781,145	262,41
781,324	214,94
781,503	165,07
781,681	181,7
781,86	202,33
782,039	235,17
782,217	179,49
782,396	200,42
782,574	160,47
782,753	271,63
782,931	230,17
783,11	241,18
783,288	153,86
783,467	260,91
783,645	107,29
783,824	249,19
784,002	119,91
784,18	174,59
784,359	217,55
784,537	148,85
784,716	222,26
784,894	238,48
785,072	110,09
785,251	216,95
785,429	176,99
785,607	191,91
785,785	161,37
785,964	213,84
786,142	43,5
786,32	212,94
786,498	145,34
786,677	227,76
786,855	168,18
787,033	192,11
787,211	119,91
787,389	210,94
787,567	204,43
787,745	179,89
787,923	213,24
788,102	194,32
788,28	223,26
788,458	159,16
788,636	151,65
788,814	173,38
788,992	202,43
789,17	199,72
789,348	227,16
789,526	217,95
789,703	118,71
789,881	165,47
790,059	123,11
790,237	172,48
790,415	133,33
790,593	164,47
790,771	199,82
790,949	174,59
791,126	223,66
791,304	134,53
791,482	113,3
791,66	137,33
791,837	167,48
792,015	165,47
792,193	125,72
792,371	229,57
792,548	203,23
792,726	171,88
792,904	110,59
793,081	124,61
793,259	74,54
793,436	206,13
793,614	151,65
793,792	152,35
793,969	232,97
794,147	181
794,324	237,98
794,502	169,48
794,679	88,06
794,857	162,07
795,034	165,37
795,212	97,47
795,389	153,46
795,567	181,2
795,744	174,99
795,921	109,29
796,099	83,65
796,276	128,52
796,453	167,08
796,631	110,89
796,808	90,36
796,985	119,01
797,163	200,72
797,34	86,26
797,517	137,33
797,694	107,29
797,872	109,49
798,049	112,2
798,226	158,06
798,403	143,54
798,58	197,52
798,757	88,56
798,935	136,43
799,112	75,84
799,289	86,86
799,466	109,69
799,643	174,29
799,82	158,06
799,997	164,37
800,174	167,28
800,351	66,33
800,528	176,19
800,705	125,01
800,882	124,01
801,059	100,08
801,236	141,44
801,413	72,44
801,589	110,69
801,766	94,07
801,943	125,72
802,12	170,38
802,297	140,64
802,474	100,38
802,651	100,68
802,827	125,72
803,004	123,31
803,181	146,35
803,358	182,5
803,534	91,47
803,711	53,31
803,888	51,81
804,064	76,54
804,241	41,19
804,418	56,52
804,594	95,87
804,771	13,75
804,947	183,2
805,124	36,09
805,301	159,36
805,477	143,44
805,654	118,2
805,83	38,69
806,007	99,08
806,183	125,21
806,36	112,4
806,536	52,31
806,712	35,18
806,889	90,36
807,065	55,61
807,242	76,44
807,418	115,9
807,594	104,89
807,771	117,4
807,947	32,88
808,123	124,61
808,3	106,69
808,476	78,45
808,652	62,52
808,829	88,76
809,005	139,24
809,181	61,52
809,357	107,99
809,533	69,13
809,71	109,69
809,886	113,1
810,062	158,56
810,238	44,4
810,414	124,31
810,59	40,29
810,766	69,93
810,942	83,25
811,118	88,36
811,294	83,96
811,47	68,23
811,646	158,26
811,822	95,27
811,998	143,94
812,174	55,11
812,35	77,35
812,526	68,43
812,702	37,59
812,878	69,03
813,054	87,06
813,23	-30,01
813,405	122,81
813,581	82,35
813,757	97,78
813,933	139,44
814,109	23,17
814,284	195,12
814,46	53,61
814,636	40,39
814,812	19,26
814,987	33,58
815,163	96,27
815,339	54,31
815,514	39,79
815,69	72,24
815,866	59,62
816,041	88,76
816,217	121,41
816,392	84,66
816,568	87,36
816,743	100,68
816,919	89,66
817,094	90,46
817,27	48,5
817,445	114,5
817,621	37,59
817,796	125,62
817,972	36,99
818,147	-3,57
818,322	47,9
818,498	145,34
818,673	42,8
818,849	31,98
819,024	-6,78
819,199	83,55
819,375	85,76
819,55	90,97
819,725	100,38
819,9	46,7
820,076	118,4
820,251	28,67
820,426	152,05
820,601	117,7
820,776	68,93
820,952	85,96
821,127	82,25
821,302	133,33
821,477	23,97
821,652	84,66
821,827	44,3
822,002	43,7
822,177	45,6
822,352	75,74
822,527	60,22
822,702	22,87
822,877	68,93
823,052	42,39
823,227	64,93
823,402	68,63
823,577	90,06
823,752	87,06
823,927	11,15
824,102	152,55
824,277	128,22
824,451	64,73
824,626	22,17
824,801	30,88
824,976	152,45
825,151	52,51
825,325	118,81
825,5	66,03
825,675	109,19
825,85	99,68
826,024	116,2
826,199	80,75
826,374	17,46
826,548	80,75
826,723	107,79
826,897	76,34
827,072	16,46
827,247	73,64
827,421	25,87
827,596	44,8
827,77	44,5
827,945	104,08
828,119	33,48
828,294	118,2
828,468	36,49
828,643	39,29
828,817	50,41
828,992	32,58
829,166	1,64
829,34	105,49
829,515	84,16
829,689	91,37
829,864	58,32
830,038	74,44
830,212	106,89
830,386	32,98
830,561	96,17
830,735	19,26
830,909	87,56
831,084	7,04
831,258	74,44
831,432	56,31
831,606	68,23
831,78	57,42
831,954	127,92
832,129	90,36
832,303	53,31
832,477	38,59
832,651	97,47
832,825	-14,49
832,999	108,19
833,173	-9,28
833,347	20,06
833,521	49,4
833,695	72,84
833,869	41,19
834,043	44,7
834,217	32,48
834,391	24,07
834,565	31,18
834,739	51,51
834,913	11,35
835,086	16,06
835,26	9,55
835,434	24,37
835,608	66,93
835,782	38,19
835,956	28,47
836,129	9,15
836,303	107,29
836,477	35,48
836,651	27,47
836,824	57,32
836,998	24,97
837,172	46,5
837,345	111,49
837,519	34,68
837,693	48,2
837,866	44,8
838,04	-20,7
838,213	-6,58
838,387	29,38
838,56	7,04
838,734	58,52
838,907	91,57
839,081	59,92
839,254	52,21
839,428	-16,49
839,601	72,44
839,775	-73,47
839,948	34,88
840,122	65,43
840,295	50,71
840,468	16,36
840,642	61,82
840,815	5,34
840,988	-22,9
841,162	19,76
841,335	65,03
841,508	59,22
841,682	19,46
841,855	58,92
842,028	58,52
842,201	37,09
842,374	22,37
842,548	83,25
842,721	43,4
842,894	31,38
843,067	-65,36
843,24	-54,85
843,413	-1,77
843,586	60,22
843,759	7,44
843,932	77,55
844,105	-19,6
844,278	24,37
844,451	30,78
844,624	58,32
844,797	20,56
844,97	47,4
845,143	18,66
845,316	79,65
845,489	-24,9
845,662	7,54
845,835	98,18
846,008	-17,19
846,18	10,75
846,353	106,39
846,526	82,45
846,699	48,4
846,872	61,32
847,044	46,9
847,217	-17,79
847,39	8,65
847,563	70,74
847,735	47,7
847,908	63,43
848,081	-4,17
848,253	3,94
848,426	-21,9
848,598	88,36
848,771	48,9
848,944	-52,04
849,116	-37,52
849,289	13,25
849,461	10,45
849,634	38,19
849,806	23,47
849,979	21,87
850,151	99,58
850,324	131,92
850,496	44,3
850,668	-38,22
850,841	-14,79
851,013	65,23
851,186	-6,58
851,358	3,14
851,53	29,58
851,703	46,2
851,875	11,55
852,047	13,65
852,219	-77,78
852,392	57,02
852,564	30,18
852,736	-43,63
852,908	-15,29
853,081	70,54
853,253	44,7
853,425	46,3
853,597	74,54
853,769	9,35
853,941	48,5
854,113	-1,67
854,285	65,63
854,457	46,5
854,63	-4,87
854,802	55,01
854,974	4,74
855,146	37,49
855,318	97,78
855,489	3,74
855,661	114,1
855,833	16,36
856,005	46,2
856,177	-60,75
856,349	8,65
856,521	8,45
856,693	-64,46
856,865	-26,4
857,036	158,26
857,208	54,61
857,38	-0,97
857,552	20,16
857,723	34,48
857,895	-9,58
858,067	-23,4
858,239	34,08
858,41	-73,17
858,582	67,53
858,754	22,47
858,925	-89,5
859,097	45,9
859,268	52,71
859,44	-11,78
859,612	-27,11
859,783	-76,38
859,955	-29,51
860,126	-16,19
860,298	-1,97
860,469	55,71
860,641	-17,89
860,812	-34,22
860,983	-33,62
861,155	2,54
861,326	24,97
861,498	35,79
861,669	4,64
861,84	70,44
862,012	51,71
862,183	44,4
862,354	81,25
862,526	8,35
862,697	32,48
862,868	-19,7
863,039	9,25
863,211	-62,36
863,382	9,75
863,553	-36,82
863,724	-27,41
863,895	21,66
864,066	99,88
864,238	6,24
864,409	90,46
864,58	-52,04
864,751	76,14
864,922	-21,4
865,093	43
865,264	74,84
865,435	-8,48
865,606	48,9
865,777	8,04
865,948	20,46
866,119	37,99
866,29	82,45
866,461	7,44
866,632	-59,55
866,802	9,15
866,973	15,56
867,144	-29,21
867,315	8,15
867,486	4,34
867,657	16,66
867,827	62,42
867,998	52,21
868,169	3,34
868,34	61,02
868,51	-18,09
868,681	76,14
868,852	-20,8
869,022	65,83
869,193	97,47
869,364	19,36
869,534	-10,38
869,705	26,57
869,875	5,84
870,046	-0,77
870,217	14,75
870,387	27,67
870,558	59,92
870,728	30,28
870,899	11,35
871,069	-4,87
871,239	63,63
871,41	20,36
871,58	57,12
871,751	24,37
871,921	2,44
872,091	-31,01
872,262	17,16
872,432	83,15
872,602	-109,22
872,773	31,98
872,943	7,34
873,113	45,4
873,284	-45,33
873,454	12,55
873,624	10,05
873,794	-8,78
873,964	24,47
874,135	-2,87
874,305	-9,58
874,475	29,08
874,645	-58,35
874,815	25,87
874,985	-3,17
875,155	-9,98
875,325	-18,19
875,495	2,04
875,665	-17,69
875,835	-3,97
876,005	-5,07
876,175	-1,07
876,345	3,74
876,515	-22,4
876,685	83,45
876,855	73,84
877,025	0,33
877,195	-56,95
877,365	0,03
877,534	18,66
877,704	-2,07
877,874	104,69
878,044	-26
878,214	39,49
878,383	14,96
878,553	57,12
878,723	-16,39
878,892	58,32
879,062	31,38
879,232	30,68
879,401	-0,37
879,571	31,98
879,741	-100,41
879,91	-31,21
880,08	24,07
880,249	5,84
880,419	-5,07
880,589	4,84
880,758	11,15
880,928	49,3
881,097	-22,8
881,267	26,97
881,436	-19,8
881,605	49,71
881,775	-97,41
881,944	17,76
882,114	60,92
882,283	-3,97
882,452	44,1
882,622	-10,18
882,791	-48,14
882,96	-37,22
883,13	42,19
883,299	14,75
883,468	4,74
883,637	-29,01
883,807	54,11
883,976	-21,4
884,145	-0,67
884,314	53,81
884,483	-20,9
884,652	19,86
884,822	-19,29
884,991	-22,4
885,16	12,65
885,329	12,95
885,498	18,46
885,667	46,1
885,836	24,57
886,005	-23,8
886,174	22,97
886,343	41,89
886,512	16,06
886,681	6,04
886,85	68,53
887,019	50,81
887,187	28,07
887,356	26,47
887,525	-48,34
887,694	3,54
887,863	-9,18
888,032	-0,57
888,2	-23,2
888,369	-19,7
888,538	30,18
888,707	-8,48
888,875	-29,01
889,044	-7,18
889,213	84,16
889,381	-5,88
889,55	0,53
889,719	37,99
889,887	59,52
890,056	-70,87
890,224	74,34
890,393	-8,18
890,562	83,75
890,73	14,15
890,899	45,3
891,067	35,79
891,236	-3,07
891,404	49,91
891,573	-27,81
891,741	-40,83
891,909	2,24
892,078	73,14
892,246	24,47
892,415	-1,17
892,583	23,67
892,751	16,86
892,92	22,07
893,088	5,74
893,256	67,23
893,424	-8,28
893,593	49,61
893,761	-29,71
893,929	-57,45
894,097	27,27
894,265	-17,29
894,434	35,38
894,602	45,7
894,77	15,16
894,938	28,47
895,106	43
895,274	45,9
895,442	14,15
895,61	85,06
895,778	-28,31
895,946	15,46
896,114	25,77
896,282	-74,27
896,45	46,4
896,618	60,62
896,786	32,18
896,954	26,27
897,122	9,35
897,29	-1,07
897,458	0,03
897,625	16,46
897,793	74,34
897,961	84,46
898,129	-18,09
898,297	71,94
898,464	8,65
898,632	21,97
898,8	66,13
898,968	-26,91
899,135	42,9
899,303	10,45
899,471	-34,52
899,638	42,6
899,806	4,14
899,973	34,38
900,141	91,57
900,309	-1,57
900,476	16,46
900,644	73,44
900,811	5,24
900,979	56,62
901,146	17,16
901,314	29,88
901,481	7,34
901,649	36,69
901,816	7,64
901,983	31,28
902,151	-17,89
