Data from Subt4__22__14-51-14-782.txt Node

Date: Thu Feb 19 14:51:14 CET 2026
User: Versuch 234
Spectrometer: USB4F05580
Trigger mode: 4
Integration Time (sec): 5,000000E-3
Scans to average: 20
Electric dark correction enabled: true
Nonlinearity correction enabled: false
Boxcar width: 0
XAxis mode: Wavelengths
Number of Pixels in Spectrum: 3648
>>>>>Begin Spectral Data<<<<<
197,409	92,02
197,623	92,02
197,837	92,02
198,051	154,11
198,265	117,85
198,479	-50,59
198,693	-7,93
198,907	-38,27
199,122	8,4
199,336	-10,73
199,55	19,41
199,763	44,45
199,977	0,88
200,191	43,75
200,405	12,5
200,619	32,73
200,833	-54,6
201,047	27,92
201,261	66,28
201,475	40,14
201,689	21,31
201,903	14,5
202,117	-47,99
202,331	-36,57
202,545	-11,23
202,758	42,24
202,972	-57,9
203,186	-98,86
203,4	45,55
203,614	28,72
203,828	-37,17
204,041	26,12
204,255	16,41
204,469	5,09
204,683	35,94
204,897	-9,83
205,11	28,32
205,324	-23,15
205,538	-21,95
205,752	-5,32
205,965	86,11
206,179	37,04
206,393	-92,55
206,606	-4,92
206,82	6,99
207,034	16,01
207,248	12,6
207,461	0,98
207,675	7,29
207,889	13,8
208,102	18,41
208,316	-26,56
208,529	-34,57
208,743	-8,43
208,957	30,53
209,17	-29,46
209,384	37,04
209,597	-5,93
209,811	39,94
210,025	43,55
210,238	4,79
210,452	-14,94
210,665	40,64
210,879	10,9
211,092	-29,76
211,306	-36,07
211,519	-46,18
211,733	9,7
211,946	68,58
212,16	71,89
212,373	-21,95
212,587	-8,83
212,8	-16,34
213,014	-0,22
213,227	25,82
213,44	4,29
213,654	81,7
213,867	71,29
214,081	53,16
214,294	-18,54
214,507	32,63
214,721	31,03
214,934	44,05
215,148	4,69
215,361	102,13
215,574	38,84
215,788	-105,67
216,001	60,67
216,214	-26,05
216,428	0,08
216,641	-3,92
216,854	17,51
217,067	9,6
217,281	42,75
217,494	31,83
217,707	43,25
217,92	-53,29
218,134	38,84
218,347	68,38
218,56	39,34
218,773	-52,09
218,986	68,88
219,2	14,1
219,413	10,2
219,626	-18,14
219,839	62,87
220,052	35,94
220,265	-25,05
220,479	46,45
220,692	36,64
220,905	1,89
221,118	26,52
221,331	-47,89
221,544	16,71
221,757	29,23
221,97	44,35
222,183	-57,7
222,396	25,32
222,609	-1,92
222,822	-71,62
223,035	23,82
223,249	10,8
223,462	4,29
223,675	-60,7
223,887	10,5
224,1	53,06
224,313	45,95
224,526	52,86
224,739	-3,62
224,952	62,07
225,165	-6,73
225,378	7,49
225,591	96,32
225,804	-18,24
226,017	49,46
226,23	-31,46
226,443	-6,83
226,656	-25,75
226,868	-46,58
227,081	58,87
227,294	-26,86
227,507	16,81
227,72	-25,95
227,933	56,06
228,145	12,7
228,358	-16,64
228,571	30,23
228,784	-35,57
228,997	-61,01
229,209	35,63
229,422	-0,82
229,635	46,55
229,848	2,39
230,06	-64,21
230,273	-64,81
230,486	13,1
230,698	-72,12
230,911	-11,53
231,124	-21,65
231,336	-51,19
231,549	19,11
231,762	48,25
231,974	-50,39
232,187	-58,4
232,4	39,64
232,612	-22,25
232,825	32,83
233,038	20,31
233,25	25,92
233,463	5,59
233,675	-11,43
233,888	5,39
234,1	82,8
234,313	30,23
234,526	51,06
234,738	-26,86
234,951	-12,33
235,163	-47,59
235,376	26,12
235,588	-91,95
235,801	-13,84
236,013	-67,01
236,226	43,55
236,438	9,6
236,65	43,25
236,863	-48,29
237,075	95,02
237,288	-57,8
237,5	-56,2
237,713	-22,95
237,925	-39,77
238,137	-7,13
238,35	27,82
238,562	-18,44
238,774	83,9
238,987	96,82
239,199	0,08
239,411	-10,33
239,624	42,24
239,836	18,31
240,048	-15,44
240,261	59,97
240,473	-11,23
240,685	5,69
240,897	-25,45
241,11	-12,43
241,322	22,02
241,534	-0,42
241,746	-19,85
241,959	80,1
242,171	1,39
242,383	-19,85
242,595	-33,87
242,807	-3,62
243,02	17,91
243,232	31,83
243,444	-27,36
243,656	55,56
243,868	9,1
244,08	-66,61
244,293	-58,1
244,505	-7,63
244,717	-0,22
244,929	-42,08
245,141	-29,16
245,353	-21,35
245,565	25,72
245,777	-17,74
245,989	-3,02
246,201	-48,49
246,413	30,43
246,625	-46,48
246,837	-9,83
247,049	10,4
247,261	62,97
247,473	-0,22
247,685	30,83
247,897	31,43
248,109	-49,49
248,321	37,64
248,533	-86,44
248,745	-54,7
248,957	-0,42
249,169	-36,97
249,381	35,53
249,593	-34,27
249,804	6,59
250,016	29,63
250,228	-35,27
250,44	37,04
250,652	-9,23
250,864	38,34
251,075	-16,14
251,287	-18,54
251,499	64,18
251,711	20,81
251,923	7,29
252,134	8,1
252,346	-33,37
252,558	26,22
252,77	-25,05
252,982	-23,35
253,193	12,3
253,405	-6,83
253,617	21,41
253,828	-62,21
254,04	71,59
254,252	78,9
254,463	17,41
254,675	-9,03
254,887	-70,62
255,098	-0,92
255,31	-25,65
255,522	69,98
255,733	4,59
255,945	48,85
256,157	-20,05
256,368	-13,74
256,58	43,05
256,791	7,29
257,003	59,87
257,214	30,23
257,426	24,62
257,637	-8,73
257,849	2,09
258,061	46,15
258,272	22,72
258,484	42,75
258,695	13,3
258,907	20,31
259,118	39,74
259,329	-52,39
259,541	0,38
259,752	40,34
259,964	85,51
260,175	-27,76
260,387	-76,93
260,598	14,6
260,809	20,61
261,021	-4,82
261,232	1,49
261,444	2,09
261,655	47,55
261,866	-30,66
262,078	-3,72
262,289	-16,64
262,5	6,89
262,712	-11,63
262,923	-19,04
263,134	-41,28
263,345	15,21
263,557	-74,22
263,768	-24,15
263,979	-18,84
264,191	-19,75
264,402	-71,92
264,613	53,46
264,824	-41,38
265,035	-26,35
265,247	52,16
265,458	-75,13
265,669	-13,74
265,88	4,29
266,091	-19,04
266,302	31,73
266,514	-50,19
266,725	-12,94
266,936	8,3
267,147	-48,39
267,358	-17,04
267,569	73,29
267,78	49,15
267,991	-21,15
268,202	60,77
268,414	9,7
268,625	76,99
268,836	-31,56
269,047	64,08
269,258	-53,09
269,469	-16,54
269,68	19,11
269,891	-21,45
270,102	46,15
270,313	-6,03
270,524	8,3
270,735	6,09
270,945	33,43
271,156	57,67
271,367	44,75
271,578	53,16
271,789	-37,37
272	55,46
272,211	29,33
272,422	-18,44
272,633	55,06
272,844	-51,59
273,054	-49,09
273,265	13,5
273,476	-25,25
273,687	-32,96
273,898	-21,65
274,109	12,7
274,319	-18,84
274,53	87,31
274,741	54,86
274,952	-3,82
275,162	41,64
275,373	9,8
275,584	-17,84
275,795	-32,46
276,005	-29,56
276,216	-17,14
276,427	22,92
276,637	1,89
276,848	-3,22
277,059	-59
277,269	-43,68
277,48	-4,82
277,691	37,54
277,901	-30,46
278,112	-18,14
278,323	-14,94
278,533	42,34
278,744	4,49
278,954	-51,69
279,165	10,1
279,376	4,69
279,586	-44,78
279,797	10,2
280,007	-8,03
280,218	37,24
280,428	71,69
280,639	57,47
280,849	-21,15
281,06	-22,25
281,27	-35,87
281,481	-35,77
281,691	17,61
281,902	-22,75
282,112	-4,32
282,322	75,29
282,533	-12,13
282,743	47,15
282,954	21,81
283,164	-43,48
283,374	33,23
283,585	63,98
283,795	-66,31
284,006	26,92
284,216	19,91
284,426	-17,64
284,637	-66,51
284,847	-37,47
285,057	41,24
285,268	43,95
285,478	6,99
285,688	43,45
285,898	-15,94
286,109	10,2
286,319	-56,1
286,529	23,92
286,739	-26,35
286,95	52,36
287,16	-1,72
287,37	48,15
287,58	-24,35
287,79	40,34
288,001	30,43
288,211	16,21
288,421	31,23
288,631	28,42
288,841	5,39
289,051	-6,03
289,261	27,82
289,471	-95,05
289,682	-5,22
289,892	37,84
290,102	-24,55
290,312	-45,58
290,522	0,58
290,732	33,63
290,942	26,52
291,152	-3,82
291,362	32,43
291,572	-83,14
291,782	9
291,992	63,68
292,202	-3,72
292,412	-83,14
292,622	14,5
292,832	47,35
293,042	13
293,252	16,21
293,462	15,01
293,672	-23,75
293,881	22,12
294,091	-17,54
294,301	-15,04
294,511	23,32
294,721	47,45
294,931	74,59
295,141	-10,13
295,35	37,14
295,56	-36,87
295,77	-6,13
295,98	-50,39
296,19	47,55
296,4	30,23
296,609	-40,48
296,819	10,2
297,029	48,75
297,239	8,9
297,448	47,75
297,658	-1,22
297,868	54,76
298,077	-11,03
298,287	-8,33
298,497	1,89
298,706	30,43
298,916	-43,18
299,126	18,91
299,335	11,3
299,545	-17,74
299,755	-36,47
299,964	22,12
300,174	112,05
300,384	79,7
300,593	54,06
300,803	-7,93
301,012	8,2
301,222	32,73
301,431	-38,77
301,641	-4,92
301,851	36,64
302,06	36,64
302,27	-15,34
302,479	39,24
302,689	10,7
302,898	-33,57
303,107	13,7
303,317	18,51
303,526	61,67
303,736	83,7
303,945	28,93
304,155	-25,95
304,364	88,11
304,574	16,91
304,783	-25,55
304,992	8,8
305,202	-17,24
305,411	-20,05
305,62	41,74
305,83	62,87
306,039	-11,83
306,248	40,14
306,458	-36,57
306,667	-76,73
306,876	21,71
307,086	-0,52
307,295	-4,42
307,504	18,71
307,713	-3,72
307,923	-103,77
308,132	27,32
308,341	-33,16
308,55	-17,74
308,76	-33,16
308,969	28,42
309,178	46,35
309,387	42,14
309,596	-41,28
309,805	26,02
310,015	10,8
310,224	-22,45
310,433	-45,38
310,642	-21,65
310,851	-5,12
311,06	-5,32
311,269	9,4
311,478	-34,37
311,687	-119,59
311,896	14,9
312,106	37,24
312,315	43,35
312,524	101,63
312,733	142,89
312,942	-2,22
313,151	76,49
313,36	-12,13
313,569	4,69
313,778	-5,52
313,987	-51,19
314,195	47,25
314,404	30,93
314,613	-15,84
314,822	49,25
315,031	-40,17
315,24	-17,94
315,449	108,04
315,658	-38,27
315,867	-46,98
316,076	-40,17
316,284	26,52
316,493	66,68
316,702	42,55
316,911	41,44
317,12	-5,22
317,329	65,88
317,537	85,71
317,746	-106,37
317,955	38,04
318,164	6,09
318,372	10
318,581	74,89
318,79	-29,86
318,999	-13,24
319,207	-3,52
319,416	-87,84
319,625	12
319,833	16,71
320,042	62,77
320,251	5,29
320,459	-33,06
320,668	-15,34
320,877	40,64
321,085	-90,35
321,294	-87,54
321,502	36,54
321,711	-25,05
321,92	12,3
322,128	-58,1
322,337	-20,35
322,545	72,09
322,754	10,9
322,962	48,45
323,171	-32,56
323,379	-42,58
323,588	5,19
323,796	-39,37
324,005	14,4
324,213	37,54
324,422	67,88
324,63	-69,62
324,839	-30,46
325,047	-30,86
325,256	-7,13
325,464	8,3
325,672	38,74
325,881	-27,96
326,089	23,82
326,297	6,99
326,506	-57,8
326,714	38,64
326,923	9,2
327,131	-2,42
327,339	35,74
327,548	-16,04
327,756	-37,57
327,964	-25,45
328,172	-21,45
328,381	26,12
328,589	19,61
328,797	-30,66
329,005	-19,75
329,214	-49,49
329,422	25,12
329,63	-25,05
329,838	98,33
330,046	-49,39
330,255	24,02
330,463	-3,72
330,671	-23,05
330,879	77,9
331,087	2,09
331,295	25,32
331,503	25,62
331,712	-9,23
331,92	42,44
332,128	47,15
332,336	22,72
332,544	-81,53
332,752	-13,04
332,96	-1,52
333,168	-27,76
333,376	-113,78
333,584	-15,34
333,792	24,22
334	27,52
334,208	-20,75
334,416	72,09
334,624	7,89
334,832	-18,44
335,04	-4,92
335,248	-8,93
335,456	8,8
335,664	-55,1
335,872	-31,76
336,08	-74,72
336,287	-40,17
336,495	67,08
336,703	9,8
336,911	57,07
337,119	4,59
337,327	44,25
337,535	16,31
337,742	-32,16
337,95	48,35
338,158	15,31
338,366	-52,39
338,573	-4,12
338,781	5,89
338,989	78,7
339,197	48,35
339,404	-35,97
339,612	12,4
339,82	-42,68
340,028	-35,17
340,235	55,26
340,443	10,3
340,651	39,04
340,858	-123,9
341,066	-11,83
341,274	10,5
341,481	62,97
341,689	73,69
341,896	-12,43
342,104	68,78
342,312	14,8
342,519	46,85
342,727	18,51
342,934	8,9
343,142	-1,02
343,349	-51,69
343,557	94,52
343,765	-54,7
343,972	42,14
344,18	-33,26
344,387	50,66
344,594	49,05
344,802	117,85
345,009	-7,13
345,217	5,89
345,424	82,6
345,632	-20,35
345,839	29,83
346,047	26,72
346,254	-13,84
346,461	16,61
346,669	-18,34
346,876	36,44
347,083	9,5
347,291	17,61
347,498	10,8
347,705	54,76
347,913	-23,75
348,12	6,09
348,327	22,52
348,535	-43,48
348,742	1,69
348,949	-16,74
349,156	-35,77
349,364	-14,64
349,571	24,32
349,778	19,81
349,985	-66,91
350,192	-0,02
350,4	32,83
350,607	55,96
350,814	47,75
351,021	-32,96
351,228	9,7
351,435	60,07
351,643	-5,83
351,85	16,11
352,057	66,68
352,264	58,27
352,471	24,72
352,678	80,2
352,885	75,59
353,092	2,59
353,299	-13,24
353,506	21,61
353,713	40,94
353,92	-33,37
354,127	35,74
354,334	5,29
354,541	-23,55
354,748	42,55
354,955	66,78
355,162	61,47
355,369	20,91
355,576	49,56
355,783	59,37
355,99	18,41
356,197	-21,75
356,404	-1,62
356,611	-0,22
356,817	-39,57
357,024	20,51
357,231	52,56
357,438	-6,63
357,645	18,11
357,852	33,93
358,058	38,24
358,265	14,1
358,472	26,42
358,679	18,61
358,885	10,5
359,092	64,88
359,299	-79,73
359,506	-12,23
359,712	-21,95
359,919	-18,54
360,126	-15,94
360,333	-58,8
360,539	22,82
360,746	14,8
360,953	16,51
361,159	-63,11
361,366	-50,29
361,572	29,33
361,779	24,02
361,986	16,61
362,192	-13,34
362,399	47,95
362,605	-28,06
362,812	10,1
363,019	-21,25
363,225	-13,64
363,432	42,34
363,638	-49,19
363,845	-10,03
364,051	75,39
364,258	-15,74
364,464	70,49
364,671	-34,37
364,877	61,77
365,084	55,66
365,29	-29,26
365,496	71,29
365,703	-21,15
365,909	-19,75
366,116	58,57
366,322	11,5
366,528	-9,13
366,735	1,69
366,941	-12,33
367,147	19,01
367,354	96,42
367,56	25,12
367,766	32,13
367,973	44,45
368,179	-6,33
368,385	-12,33
368,592	59,07
368,798	42,24
369,004	1,99
369,21	1,69
369,417	77,5
369,623	-53,49
369,829	27,42
370,035	29,33
370,241	57,67
370,448	-8,33
370,654	22,82
370,86	-25,25
371,066	46,65
371,272	22,42
371,478	48,15
371,684	-17,24
371,891	63,17
372,097	32,03
372,303	-54,5
372,509	-6,63
372,715	-9,43
372,921	13,7
373,127	11
373,333	67,88
373,539	-15,04
373,745	40,04
373,951	54,46
374,157	-17,64
374,363	19,21
374,569	-28,76
374,775	8,4
374,981	-41,78
375,187	-52,89
375,393	14,4
375,599	39,64
375,804	20,81
376,01	23,22
376,216	17,61
376,422	-10,33
376,628	24,22
376,834	59,37
377,04	8,1
377,246	-2,32
377,451	-27,56
377,657	-43,38
377,863	19,21
378,069	-49,09
378,274	38,04
378,48	48,25
378,686	48,35
378,892	28,12
379,097	-13,84
379,303	28,12
379,509	19,11
379,715	45,65
379,92	40,04
380,126	66,78
380,332	-61,91
380,537	-12,53
380,743	106,64
380,949	-2,02
381,154	-14,44
381,36	-0,52
381,565	21,31
381,771	35,53
381,977	-13,54
382,182	-11,33
382,388	30,53
382,593	-1,42
382,799	-3,32
383,004	-46,98
383,21	26,12
383,415	-23,65
383,621	-19,24
383,826	1,99
384,032	36,74
384,237	-40,78
384,443	16,21
384,648	-29,36
384,854	60,37
385,059	-30,06
385,265	-48,69
385,47	-43,88
385,675	28,52
385,881	50,46
386,086	-41,48
386,291	-9,43
386,497	36,74
386,702	-14,24
386,907	-7,43
387,113	-35,67
387,318	48,65
387,523	-45,78
387,729	11,7
387,934	35,33
388,139	38,84
388,344	14
388,55	31,13
388,755	-26,56
388,96	57,67
389,165	96,32
389,371	78,5
389,576	-20,75
389,781	128,17
389,986	-33,16
390,191	30,53
390,396	-7,83
390,601	41,24
390,807	16,41
391,012	30,93
391,217	28,32
391,422	17,41
391,627	29,63
391,832	-95,86
392,037	66,48
392,242	116,75
392,447	24,02
392,652	-44,68
392,857	34,33
393,062	-35,37
393,267	23,92
393,472	-8,83
393,677	-40,68
393,882	9,9
394,087	42,95
394,292	64,28
394,497	33,13
394,702	3,79
394,907	63,28
395,112	1,08
395,317	2,19
395,521	3,29
395,726	-19,54
395,931	-4,72
396,136	56,37
396,341	-81,74
396,546	29,23
396,75	-15,84
396,955	-15,94
397,16	-56,7
397,365	2,49
397,57	15,01
397,774	-7,13
397,979	9,7
398,184	-52,19
398,389	81,1
398,593	58,77
398,798	-40,07
399,003	-2,92
399,207	6,99
399,412	-17,44
399,617	-25,55
399,821	-47,69
400,026	96,22
400,231	65,88
400,435	10,5
400,64	-13,34
400,844	-22,35
401,049	13,3
401,254	-5,22
401,458	-1,22
401,663	-40,48
401,867	40,24
402,072	9,6
402,276	13,7
402,481	-9,13
402,685	53,06
402,89	2,39
403,094	52,36
403,299	19,21
403,503	46,25
403,708	-71,62
403,912	-25,15
404,116	-34,07
404,321	88,51
404,525	-10,73
404,73	41,54
404,934	16,41
405,138	-3,72
405,343	91,92
405,547	39,64
405,751	10,4
405,956	-9,23
406,16	2,09
406,364	49,15
406,569	16,01
406,773	-49,19
406,977	-51,89
407,181	-91,95
407,386	49,96
407,59	-26,56
407,794	-10,63
407,998	4,29
408,202	-17,14
408,407	-0,92
408,611	-15,34
408,815	30,63
409,019	-19,54
409,223	49,15
409,427	4,19
409,632	83,4
409,836	27,42
410,04	-22,45
410,244	0,98
410,448	-25,85
410,652	56,97
410,856	-70,82
411,06	16,91
411,264	24,22
411,468	-3,72
411,672	-15,94
411,876	88,11
412,08	16,91
412,284	-14,74
412,488	-3,72
412,692	66,38
412,896	-14,44
413,1	42,75
413,304	-0,22
413,508	18,61
413,712	4,09
413,916	18,01
414,12	35,23
414,323	23,22
414,527	8,7
414,731	-76,03
414,935	74,09
415,139	86,71
415,343	61,27
415,546	54,36
415,75	-2,12
415,954	66,78
416,158	-46,88
416,361	-43,18
416,565	-37,57
416,769	10,4
416,973	-0,32
417,176	38,04
417,38	-83,04
417,584	-60,7
417,788	60,27
417,991	20,51
418,195	-12,43
418,398	44,45
418,602	-13,24
418,806	-6,13
419,009	-6,53
419,213	81,9
419,417	43,25
419,62	3,09
419,824	69,38
420,027	-16,24
420,231	-18,44
420,434	-33,06
420,638	-30,66
420,841	70,59
421,045	22,12
421,248	48,65
421,452	-0,62
421,655	-1,02
421,859	55,36
422,062	-37,67
422,266	59,27
422,469	-9,93
422,673	24,12
422,876	-44,28
423,079	-23,55
423,283	-0,22
423,486	5,49
423,689	-37,47
423,893	40,44
424,096	131,97
424,299	83,8
424,503	-23,05
424,706	-11,13
424,909	29,73
425,113	2,39
425,316	7,19
425,519	77,1
425,722	68,98
425,926	-5,22
426,129	21,92
426,332	9,1
426,535	25,82
426,739	-49,69
426,942	-34,77
427,145	-17,34
427,348	0,28
427,551	12,6
427,754	29,93
427,957	4,99
428,161	16,51
428,364	31,03
428,567	-61,11
428,77	-3,92
428,973	3,49
429,176	3,19
429,379	12,6
429,582	-91,65
429,785	31,43
429,988	-12,74
430,191	74,19
430,394	-26,05
430,597	-11,93
430,8	66,68
431,003	22,62
431,206	-24,55
431,409	-1,72
431,612	-53,99
431,815	58,07
432,018	63,78
432,221	4,29
432,423	55,86
432,626	-63,11
432,829	36,04
433,032	107,34
433,235	54,16
433,438	-54,3
433,64	-70,32
433,843	71,09
434,046	33,93
434,249	13
434,452	29,73
434,654	-73,82
434,857	-22,35
435,06	-51,19
435,263	51,16
435,465	-29,46
435,668	-47,79
435,871	140,19
436,073	23,42
436,276	-5,42
436,479	-39,77
436,681	14,2
436,884	33,13
437,087	33,43
437,289	56,26
437,492	2,59
437,694	49,15
437,897	-16,94
438,1	58,77
438,302	-8,23
438,505	41,44
438,707	3,39
438,91	11,1
439,112	61,07
439,315	24,82
439,517	78,2
439,72	-16,64
439,922	-17,34
440,125	-12,53
440,327	9
440,529	-9,13
440,732	-23,05
440,934	22,62
441,137	-6,73
441,339	-15,94
441,541	-62,41
441,744	43,75
441,946	-28,26
442,148	33,83
442,351	14
442,553	8,5
442,755	-10,53
442,958	-13,04
443,16	-8,23
443,362	0,48
443,565	10,9
443,767	24,72
443,969	-40,78
444,171	49,96
444,373	19,61
444,576	-12,13
444,778	-10,73
444,98	-49,99
445,182	67,08
445,384	-46,68
445,586	59,07
445,789	51,76
445,991	35,13
446,193	85,71
446,395	-25,95
446,597	-19,44
446,799	68,18
447,001	6,99
447,203	-20,35
447,405	-15,34
447,607	36,04
447,809	69,48
448,011	-51,09
448,213	7,39
448,415	-82,44
448,617	69,68
448,819	-31,26
449,021	-59,6
449,223	103,93
449,425	70,59
449,627	49,56
449,829	-65,81
450,031	11,3
450,233	43,35
450,435	87,11
450,636	-3,42
450,838	40,94
451,04	6,49
451,242	0,68
451,444	-23,95
451,646	4,69
451,847	5,99
452,049	51,76
452,251	51,16
452,453	36,54
452,654	-8,83
452,856	54,46
453,058	15,21
453,26	9,7
453,461	-1,32
453,663	-49,89
453,865	-2,92
454,066	-15,74
454,268	-0,92
454,47	74,09
454,671	43,95
454,873	-2,52
455,074	-41,78
455,276	-3,62
455,478	27,72
455,679	91,62
455,881	52,76
456,082	25,12
456,284	11,5
456,485	27,82
456,687	39,94
456,888	-28,46
457,09	-12,94
457,291	60,37
457,493	-85,84
457,694	0,28
457,896	-32,36
458,097	45,25
458,299	11,6
458,5	7,79
458,701	-44,48
458,903	91,72
459,104	8,5
459,306	34,93
459,507	50,36
459,708	19,61
459,91	54,66
460,111	11,4
460,312	-24,65
460,514	43,75
460,715	70,29
460,916	24,22
461,117	40,84
461,319	-25,75
461,52	-29,26
461,721	2,29
461,922	-25,75
462,124	44,85
462,325	-7,93
462,526	-14,34
462,727	-3,62
462,928	61,97
463,129	46,75
463,331	24,32
463,532	-20,95
463,733	-2,42
463,934	-0,02
464,135	9,3
464,336	9,3
464,537	17,11
464,738	7,19
464,939	-14,24
465,14	22,42
465,341	75,59
465,542	10,3
465,743	57,57
465,944	44,35
466,145	-1,02
466,346	-2,22
466,547	83,1
466,748	-41,28
466,949	14,1
467,15	45,15
467,351	15,41
467,552	22,92
467,753	24,02
467,953	13,5
468,154	14,9
468,355	54,76
468,556	-80,23
468,757	-18,24
468,958	-62,51
469,158	-5,72
469,359	33,33
469,56	-4,52
469,761	53,66
469,962	53,66
470,162	-3,82
470,363	-26,86
470,564	53,56
470,764	0,78
470,965	18,81
471,166	9
471,366	-16,34
471,567	-158,35
471,768	-31,06
471,968	-2,32
472,169	19,01
472,37	29,03
472,57	12,4
472,771	19,81
472,971	-34,17
473,172	-25,75
473,373	17,61
473,573	-7,63
473,774	61,67
473,974	72,09
474,175	4,59
474,375	-47,89
474,576	54,76
474,776	8,2
474,977	10,2
475,177	72,89
475,377	-7,03
475,578	-63,01
475,778	20,91
475,979	32,03
476,179	-17,84
476,379	33,53
476,58	22,92
476,78	51,76
476,981	72,39
477,181	-0,72
477,381	36,34
477,582	10,8
477,782	-7,93
477,982	36,14
478,182	39,54
478,383	105,54
478,583	74,19
478,783	-34,17
478,983	24,62
479,184	43,25
479,384	-65,61
479,584	13,5
479,784	62,67
479,984	147,7
480,184	-63,91
480,385	4,29
480,585	88,61
480,785	13,2
480,985	10,6
481,185	39,04
481,385	61,37
481,585	112,85
481,785	99,53
481,985	-32,56
482,185	53,36
482,385	70,19
482,585	10,7
482,785	35,94
482,985	47,75
483,185	89,71
483,385	84,21
483,585	12,2
483,785	49,46
483,985	53,76
484,185	89,01
484,385	8,2
484,585	9,6
484,785	46,95
484,985	72,49
485,185	53,16
485,384	21,81
485,584	60,57
485,784	37,84
485,984	5,19
486,184	39,04
486,383	4,69
486,583	24,72
486,783	-13,34
486,983	-22,35
487,183	-7,93
487,382	65,28
487,582	-24,85
487,782	18,71
487,981	88,81
488,181	0,88
488,381	-15,24
488,58	-15,54
488,78	41,44
488,98	-9,53
489,179	-46,08
489,379	-16,04
489,579	24,02
489,778	51,36
489,978	54,06
490,177	-112,38
490,377	-13,94
490,576	-26,15
490,776	3,49
490,975	-7,63
491,175	47,05
491,374	-32,76
491,574	51,76
491,773	41,74
491,973	35,23
492,172	33,83
492,372	59,97
492,571	7,09
492,771	28,72
492,97	49,25
493,169	24,02
493,369	39,94
493,568	-13,44
493,767	4,39
493,967	62,97
494,166	32,73
494,365	76,29
494,565	-19,54
494,764	3,49
494,963	-36,37
495,163	82,9
495,362	56,37
495,561	46,05
495,76	130,27
495,959	-28,26
496,159	21,51
496,358	36,54
496,557	35,43
496,756	-31,56
496,955	-54,5
497,155	112,75
497,354	-6,93
497,553	69,78
497,752	12,6
497,951	-2,42
498,15	55,96
498,349	1,29
498,548	6,69
498,747	38,64
498,946	-20,95
499,145	2,09
499,344	45,15
499,543	52,86
499,742	13,9
499,941	17,51
500,14	14,6
500,339	-50,19
500,538	35,94
500,737	22,82
500,936	39,24
501,135	31,53
501,334	66,68
501,533	84,51
501,732	99,23
501,931	-7,43
502,129	-21,55
502,328	-36,17
502,527	-10,93
502,726	-20,05
502,925	15,01
503,123	25,22
503,322	-23,95
503,521	71,89
503,72	22,82
503,919	23,02
504,117	55,36
504,316	-23,05
504,515	16,01
504,713	-35,97
504,912	12
505,111	49,35
505,309	21,41
505,508	-0,72
505,707	50,06
505,905	-4,62
506,104	36,74
506,302	0,28
506,501	-13,84
506,7	3,49
506,898	-10,83
507,097	-11,53
507,295	-42,18
507,494	0,98
507,692	49,15
507,891	93,82
508,089	18,31
508,288	-48,49
508,486	4,09
508,685	-60,6
508,883	42,14
509,082	28,72
509,28	108,64
509,478	23,32
509,677	16,11
509,875	115,85
510,073	56,26
510,272	52,36
510,47	52,16
510,669	36,74
510,867	32,33
511,065	63,17
511,263	35,23
511,462	91,72
511,66	50,26
511,858	-1,82
512,056	26,92
512,255	-40,98
512,453	3,79
512,651	-10,43
512,849	69,78
513,048	72,09
513,246	62,07
513,444	63,78
513,642	60,07
513,84	15,91
514,038	-14,84
514,236	10,7
514,435	82,1
514,633	-69,42
514,831	21,31
515,029	-19,75
515,227	59,27
515,425	40,04
515,623	-32,66
515,821	19,11
516,019	28,72
516,217	-17,44
516,415	10,7
516,613	27,62
516,811	10,5
517,009	54,96
517,207	81,5
517,405	103,93
517,602	7,99
517,8	57,77
517,998	21,31
518,196	43,45
518,394	108,44
518,592	38,14
518,79	-18,34
518,987	56,06
519,185	38,24
519,383	51,16
519,581	-18,24
519,779	66,88
519,976	32,63
520,174	26,92
520,372	2,29
520,57	86,71
520,767	55,36
520,965	68,18
521,163	69,48
521,36	13,6
521,558	81,6
521,756	30,53
521,953	82,4
522,151	85,21
522,349	46,65
522,546	55,66
522,744	75,09
522,941	38,34
523,139	-9,03
523,336	65,28
523,534	106,34
523,731	-38,97
523,929	18,41
524,126	53,16
524,324	-22,45
524,521	16,01
524,719	7,19
524,916	35,23
525,114	47,35
525,311	117,35
525,509	-11,03
525,706	38,84
525,903	-28,56
526,101	105,64
526,298	68,78
526,496	59,37
526,693	14,3
526,89	113,05
527,088	102,73
527,285	2,09
527,482	35,94
527,679	21,01
527,877	-18,44
528,074	11,3
528,271	49,15
528,468	52,26
528,666	99,93
528,863	140,59
529,06	79
529,257	67,68
529,454	55,66
529,652	55,86
529,849	35,94
530,046	45,15
530,243	-5,72
530,44	39,34
530,637	222,31
530,834	32,23
531,031	32,53
531,228	0,98
531,425	78,3
531,622	91,32
531,819	63,78
532,016	111,44
532,213	125,87
532,41	49,15
532,607	17,71
532,804	-5,02
533,001	63,17
533,198	53,96
533,395	60,77
533,592	82,8
533,789	75,09
533,986	84,51
534,183	77,4
534,38	59,07
534,576	95,52
534,773	93,12
534,97	134,48
535,167	79,5
535,364	92,92
535,561	116,45
535,757	33,83
535,954	128,07
536,151	129,57
536,348	116,75
536,544	8,9
536,741	75,59
536,938	53,56
537,134	92,62
537,331	65,18
537,528	151,3
537,724	89,71
537,921	110,84
538,118	134,58
538,314	38,84
538,511	121,56
538,707	78,3
538,904	92,92
539,101	130,47
539,297	93,22
539,494	130,17
539,69	136,88
539,887	108,14
540,083	101,03
540,28	135,98
540,476	87,71
540,673	83,4
540,869	43,45
541,066	150,2
541,262	142,99
541,458	166,42
541,655	167,33
541,851	233,42
542,048	93,22
542,244	105,84
542,44	139,79
542,637	116,05
542,833	142,89
543,029	132,28
543,226	91,22
543,422	228,71
543,618	202,28
543,814	121,06
544,011	131,67
544,207	132,68
544,403	215,3
544,599	178,74
544,796	184,35
544,992	116,75
545,188	170,93
545,384	172,53
545,58	257,96
545,776	173,64
545,972	206,98
546,169	190,96
546,365	185,05
546,561	264,07
546,757	182,65
546,953	221,4
547,149	253,95
547,345	213,99
547,541	231,82
547,737	210,09
547,933	290,2
548,129	252,95
548,325	309,33
548,521	275,68
548,717	261,46
548,913	281,49
549,109	412,28
549,305	288,5
549,501	351,49
549,697	320,55
549,892	350,59
550,088	351,19
550,284	332,16
550,48	328,36
550,676	419,59
550,872	423,3
551,067	388,45
551,263	425,1
551,459	434,81
551,655	459,35
551,85	384,04
552,046	523,04
552,242	446,73
552,438	395,46
552,633	502,31
552,829	459,25
553,025	587,33
553,22	449,43
553,416	386,14
553,612	500,11
553,807	586,63
554,003	648,82
554,198	620,38
554,394	478,58
554,59	643,82
554,785	567,61
554,981	667,55
555,176	666,45
555,372	677,16
555,567	643,22
555,763	793,23
555,958	694,39
556,154	744,56
556,349	769,9
556,545	761,89
556,74	806,95
556,936	779,41
557,131	855,72
557,326	909,9
557,522	878,66
557,717	951,06
557,912	960,68
558,108	983,41
558,303	957,87
558,498	1077,85
558,694	1085,26
558,889	1127,52
559,084	1022,47
559,28	1113,7
559,475	1144,44
559,67	1215,75
559,865	1224,56
560,061	1243,69
560,256	1235,67
560,451	1218,85
560,646	1246,59
560,841	1361,96
561,037	1286,15
561,232	1371,67
561,427	1491,75
561,622	1467,11
561,817	1498,86
562,012	1525,9
562,207	1548,43
562,402	1538,81
562,597	1648,97
562,792	1662,39
562,987	1802,9
563,182	1797,79
563,377	1808,2
563,572	1897,63
563,767	1996,48
563,962	1976,35
564,157	1996,08
564,352	2096,82
564,547	2148,5
564,742	2203,38
564,937	2146,19
565,132	2271,78
565,327	2295,61
565,522	2376,93
565,716	2472,47
565,911	2536,06
566,106	2540,37
566,301	2665,35
566,496	2699
566,691	2776,21
566,885	2844,61
567,08	2882,16
567,275	2957,47
567,47	3039,79
567,664	3042,49
567,859	3126,72
568,054	3215,85
568,248	3210,24
568,443	3381,89
568,638	3502,56
568,832	3529,6
569,027	3638,36
569,222	3638,86
569,416	3751,62
569,611	3764,84
569,805	4025,82
570	4065,78
570,195	4088,01
570,389	4202,68
570,584	4300,42
570,778	4418,89
570,973	4681,47
571,167	4561,2
571,362	4908,7
571,556	4912,8
571,751	5061,12
571,945	5028,47
572,139	5286,45
572,334	5340,52
572,528	5480,43
572,723	5587,98
572,917	5759,23
573,111	5875,8
573,306	6039,94
573,5	6111,74
573,694	6326,95
573,889	6354,29
574,083	6658,84
574,277	6676,16
574,472	6902,29
574,666	7028,77
574,86	7353,64
575,054	7536,01
575,249	7700,05
575,443	7753,42
575,637	8017,71
575,831	8175,33
576,025	8473,87
576,219	8451,94
576,414	8804,05
576,608	8891,27
576,802	9204,13
576,996	9349,34
577,19	9562,04
577,384	9878,9
577,578	9938,69
577,772	10165,92
577,966	10794,83
578,16	10771
578,354	11194,41
578,548	11192,31
578,742	11643,06
578,936	11794,58
579,13	12161,21
579,324	12417,08
579,518	12686,17
579,712	12812,96
579,906	13207,33
580,1	13364,66
580,294	13836,64
580,488	13796,98
580,682	14342,17
580,875	14579,52
581,069	15039,28
581,263	15240,58
581,457	15825,32
581,651	16010,29
581,845	16484,08
582,038	16611,86
582,232	17218,84
582,426	17229,46
582,62	18034,93
582,813	18015
583,007	18576,61
583,201	18669,35
583,394	19304,57
583,588	19688,62
583,782	20220,5
583,975	20524,64
584,169	21395,6
584,363	21661,38
584,556	22351,88
584,75	22586,93
584,943	23227,85
585,137	23461,39
585,33	24003,28
585,524	24413,67
585,718	25426,64
585,911	25381,28
586,105	26270,06
586,298	26375,02
586,491	27382,38
586,685	27843,95
586,878	28485,88
587,072	28691,98
587,265	29685,52
587,459	29875,59
587,652	31160,85
587,845	31069,72
588,039	32338,36
588,232	32677,85
588,426	33578,06
588,619	33748,2
588,812	34764,68
589,005	35329,7
589,199	36448,92
589,392	36894,07
589,585	37963,01
589,779	38335,55
589,972	39575,45
590,165	39866,37
590,358	41036,17
590,551	41310,27
590,745	42373,41
590,938	42937,33
591,131	44189,64
591,324	42690,67
591,517	45611,1
591,71	45624,12
591,904	46845,09
592,097	46923,6
592,29	48016,79
592,483	47893,41
592,676	49213,92
592,869	49075,62
593,062	50324,43
593,255	50194,55
593,448	51158,84
593,641	51165,35
593,834	52009,28
594,027	51883,49
594,22	52793,01
594,413	52756,86
594,606	53522,97
594,799	53145,62
594,992	54075,27
595,184	53649,05
595,377	54254,53
595,57	54380,11
595,763	55122,99
595,956	54206,86
596,149	54789,41
596,341	54551,26
596,534	54389,53
596,727	53949,09
596,92	53954,4
597,113	53078,53
597,305	52771,78
597,498	51818,7
597,691	51534,29
597,883	50598,23
598,076	49974,03
598,269	49057,9
598,462	48582,31
598,654	47340,11
598,847	46358,18
599,039	45238,76
599,232	44536,04
599,425	43073,62
599,617	41927,16
599,81	40991,61
600,002	39971,43
600,195	38046,04
600,387	37775,54
600,58	36019,6
600,772	35152,64
600,965	33407,71
601,157	32610,86
601,35	31251,59
601,542	30299,11
601,735	28911,79
601,927	28234,91
602,12	26554,28
602,312	25974,64
602,504	24596,64
602,697	23673,6
602,889	22829,88
603,082	22052,15
603,274	21076,34
603,466	20426,49
603,659	19221,05
603,851	18621,08
604,043	17633,75
604,235	17280,03
604,428	16275,48
604,62	15864,88
604,812	15177,08
605,004	14768,09
605,197	13875,9
605,389	13602,3
605,581	12736,45
605,773	12450,93
605,965	11850,86
606,157	11472,01
606,349	10841,6
606,542	10579,42
606,734	10115,75
606,926	9893,42
607,118	9365,96
607,31	9207,23
607,502	8601,15
607,694	8480,68
607,886	7886,12
608,078	7785,67
608,27	7350,94
608,462	7167,97
608,654	6798,14
608,846	6717,62
609,038	6303,72
609,23	6318,44
609,422	5960,82
609,614	5643,56
609,805	5511,77
609,997	5389
610,189	5065,13
610,381	5048,6
610,573	4752,97
610,765	4643,11
610,957	4436,81
611,148	4304,42
611,34	4132,87
611,532	4050,45
611,724	3918,96
611,915	3749,52
612,107	3603,81
612,299	3468,61
612,491	3338,92
612,682	3318,79
612,874	3004,44
613,066	2997,73
613,257	2804,55
613,449	2779,01
613,64	2670,96
613,832	2520,24
614,024	2465,46
614,215	2469,16
614,407	2329,36
614,598	2229,52
614,79	2232,02
614,981	2102,63
615,173	2004,29
615,364	1889,52
615,556	1829,64
615,747	1897,13
615,939	1728,09
616,13	1673,71
616,322	1733,8
616,513	1603,81
616,705	1495,95
616,896	1561,35
617,087	1540,12
617,279	1347,64
617,47	1291,46
617,661	1332,21
617,853	1269,82
618,044	1163,67
618,235	1138,43
618,427	1182,5
618,618	1069,63
618,809	1105,09
619	1074,94
619,192	1029,58
619,383	943,15
619,574	990,62
619,765	868,54
619,957	954,87
620,148	896,98
620,339	848,91
620,53	796,24
620,721	755,68
620,912	732,34
621,103	814,26
621,294	768
621,485	760,09
621,677	739,46
621,868	730,14
622,059	614,07
622,25	675,06
622,441	525,95
622,632	651,33
622,823	561
623,014	554,09
623,205	577,92
623,395	544,17
623,586	524,94
623,777	568,11
623,968	468,96
624,159	492,4
624,35	469,76
624,541	483,18
624,732	453,04
624,923	463,96
625,113	378,53
625,304	364,71
625,495	382,24
625,686	336,07
625,877	427,6
626,067	317,94
626,258	310,13
626,449	303,52
626,639	332,37
626,83	366,11
627,021	336,67
627,211	269,17
627,402	370,12
627,593	190,06
627,783	278,99
627,974	246,44
628,165	231,32
628,355	229,52
628,546	231,12
628,736	253,35
628,927	225,51
629,117	224,51
629,308	228,41
629,498	200,87
629,689	238,93
629,879	251,35
630,07	169,93
630,26	161,42
630,451	164,22
630,641	208,39
630,832	236,43
631,022	172,23
631,212	232,12
631,403	158,71
631,593	202,78
631,784	80,6
631,974	238,33
632,164	185,05
632,355	143,29
632,545	142,99
632,735	159,11
632,925	127,77
633,116	169,73
633,306	72,09
633,496	143,49
633,686	167,23
633,876	165,42
634,067	122,46
634,257	134,28
634,447	112,05
634,637	78,9
634,827	94,12
635,017	-17,04
635,208	140,99
635,398	117,95
635,588	126,37
635,778	47,65
635,968	179,04
636,158	161,62
636,348	91,32
636,538	109,94
636,728	98,83
636,918	127,97
637,108	121,76
637,298	57,67
637,488	75,39
637,678	87,41
637,868	80,6
638,057	133,58
638,247	86,71
638,437	94,82
638,627	181,95
638,817	69,38
639,007	20,81
639,197	82,4
639,386	41,04
639,576	93,82
639,766	28,42
639,956	130,97
640,145	50,36
640,335	79,6
640,525	95,52
640,715	137,48
640,904	79,7
641,094	33,43
641,284	24,32
641,473	34,83
641,663	69,98
641,853	5,19
642,042	80,5
642,232	50,06
642,421	29,53
642,611	135,38
642,801	66,08
642,99	76,79
643,18	96,12
643,369	118,05
643,559	63,98
643,748	158,01
643,938	132,38
644,127	10,1
644,317	-6,83
644,506	42,04
644,695	101,23
644,885	38,04
645,074	0,48
645,264	45,25
645,453	50,26
645,642	61,07
645,832	27,82
646,021	97,62
646,21	88,81
646,4	-22,35
646,589	69,88
646,778	94,82
646,967	-28,76
647,157	-25,85
647,346	106,14
647,535	8,3
647,724	66,58
647,913	91,32
648,103	29,83
648,292	49,15
648,481	78,2
648,67	68,18
648,859	30,13
649,048	120,26
649,237	-9,63
649,427	107,24
649,616	75,19
649,805	90,92
649,994	37,94
650,183	31,63
650,372	68,58
650,561	33,93
650,75	78,5
650,939	36,64
651,128	28,83
651,317	7,69
651,506	-4,92
651,694	45,65
651,883	107,04
652,072	-17,84
652,261	33,23
652,45	39,14
652,639	33,03
652,828	9,1
653,016	96,12
653,205	-8,53
653,394	23,42
653,583	-15,24
653,772	51,26
653,96	-23,05
654,149	-11,23
654,338	40,04
654,527	18,51
654,715	22,62
654,904	52,46
655,093	25,22
655,281	40,14
655,47	49,66
655,658	16,31
655,847	-20,25
656,036	36,24
656,224	60,17
656,413	39,94
656,601	-28,46
656,79	-10,43
656,978	36,44
657,167	63,58
657,355	31,93
657,544	3,99
657,732	58,77
657,921	12,6
658,109	-6,33
658,298	37,54
658,486	32,73
658,675	7,89
658,863	134,68
659,051	29,73
659,24	20,91
659,428	-41,58
659,616	11,5
659,805	-6,43
659,993	-35,77
660,181	-25,25
660,37	57,47
660,558	-45,08
660,746	66,38
660,934	5,29
661,123	-9,73
661,311	-18,44
661,499	115,25
661,687	-4,22
661,875	65,08
662,064	-13,14
662,252	19,21
662,44	-22,55
662,628	-27,26
662,816	46,35
663,004	37,74
663,192	-25,55
663,38	24,52
663,568	77,3
663,756	-12,53
663,944	47,45
664,132	15,91
664,32	17,31
664,508	34,83
664,696	-6,03
664,884	78,4
665,072	12
665,26	-29,36
665,448	85,81
665,636	-20,85
665,824	91,52
666,012	2,29
666,199	-29,46
666,387	14,5
666,575	-3,32
666,763	13,2
666,951	-13,74
667,139	56,37
667,326	44,15
667,514	-31,26
667,702	4,29
667,889	53,76
668,077	14,5
668,265	-49,79
668,453	5,29
668,64	-17,64
668,828	19,11
669,016	25,32
669,203	23,02
669,391	73,49
669,578	31,03
669,766	3,49
669,954	8,8
670,141	43,25
670,329	-71,22
670,516	14
670,704	76,79
670,891	16,81
671,079	-19,95
671,266	85,71
671,454	42,85
671,641	38,44
671,828	44,35
672,016	-78,93
672,203	-0,72
672,391	29,33
672,578	-7,93
672,765	-50,19
672,953	7,69
673,14	36,04
673,327	18,61
673,515	13,1
673,702	35,33
673,889	-24,25
674,077	-69,92
674,264	24,72
674,451	1,79
674,638	17,31
674,825	-69,82
675,013	29,93
675,2	29,73
675,387	-17,14
675,574	-57,5
675,761	33,13
675,948	55,96
676,136	71,29
676,323	4,39
676,51	14,6
676,697	104,74
676,884	6,09
677,071	37,74
677,258	86,51
677,445	23,12
677,632	29,13
677,819	-22,45
678,006	15,71
678,193	-41,28
678,38	-23,15
678,567	41,14
678,754	70,39
678,94	38,74
679,127	36,84
679,314	34,13
679,501	10,9
679,688	71,69
679,875	37,54
680,062	46,95
680,248	60,47
680,435	29,53
680,622	80,3
680,809	16,51
680,995	69,38
681,182	33,53
681,369	-10,13
681,556	45,75
681,742	72,99
681,929	64,38
682,116	92,22
682,302	-69,02
682,489	49,66
682,675	-39,47
682,862	90,71
683,049	69,58
683,235	15,51
683,422	-60,3
683,608	68,28
683,795	-35,87
683,981	-50,39
684,168	-19,14
684,354	71,19
684,541	18,81
684,727	49,56
684,914	53,96
685,1	18,91
685,287	28,42
685,473	18,51
685,659	8,4
685,846	63,48
686,032	-35,37
686,218	7,19
686,405	26,62
686,591	25,02
686,777	43,95
686,964	51,96
687,15	120,76
687,336	20,41
687,522	56,47
687,709	-60
687,895	34,83
688,081	10,7
688,267	6,89
688,454	40,34
688,64	15,21
688,826	53,46
689,012	-25,05
689,198	-24,25
689,384	36,34
689,57	-24,65
689,756	10,8
689,942	-3,32
690,128	31,83
690,314	46,85
690,501	-38,57
690,687	22,72
690,873	24,52
691,058	-14,44
691,244	-14,34
691,43	-72,82
691,616	62,77
691,802	-51,89
691,988	49,15
692,174	36,14
692,36	9,4
692,546	-39,47
692,732	59,57
692,917	73,59
693,103	37,04
693,289	48,45
693,475	-7,83
693,661	-6,73
693,846	11,2
694,032	-91,45
694,218	-7,13
694,404	52,26
694,589	5,89
694,775	30,93
694,961	-7,33
695,146	-48,29
695,332	14,5
695,518	52,16
695,703	12,1
695,889	49,46
696,074	-18,84
696,26	-27,96
696,446	-51,29
696,631	73,89
696,817	75,89
697,002	35,33
697,188	21,61
697,373	28,02
697,559	21,41
697,744	8,9
697,93	73,69
698,115	-48,39
698,3	-24,85
698,486	-12,03
698,671	44,05
698,857	-4,72
699,042	-102,77
699,227	114,05
699,413	-30,06
699,598	8,1
699,783	30,03
699,969	92,02
700,154	-11,73
700,339	-19,04
700,524	-23,05
700,71	-12,43
700,895	-43,48
701,08	91,12
701,265	-49,29
701,45	58,67
701,636	-10,73
701,821	-29,46
702,006	-4,42
702,191	-3,92
702,376	-74,02
702,561	-39,87
702,746	-24,35
702,931	103,93
703,116	50,56
703,301	2,49
703,486	-8,43
703,671	-18,64
703,856	-66,21
704,041	14
704,226	60,47
704,411	-58,5
704,596	-170,86
704,781	-12,03
704,966	38,74
705,151	17,41
705,336	2,89
705,521	12,4
705,706	89,61
705,89	-13,34
706,075	-0,72
706,26	37,54
706,445	18,11
706,63	-30,16
706,814	46,35
706,999	6,99
707,184	10,9
707,368	46,55
707,553	51,26
707,738	-11,23
707,923	81,8
708,107	20,71
708,292	7,79
708,476	52,66
708,661	30,53
708,846	32,93
709,03	22,52
709,215	30,73
709,399	-31,86
709,584	-35,27
709,768	41,14
709,953	12,6
710,137	33,43
710,322	-20,35
710,506	-11,33
710,691	-19,34
710,875	-5,52
711,06	30,23
711,244	29,13
711,429	-5,83
711,613	-46,88
711,797	12,8
711,982	10,2
712,166	74,39
712,35	-26,96
712,535	72,59
712,719	116,95
712,903	29,13
713,088	4,89
713,272	5,29
713,456	-23,25
713,64	-3,72
713,824	-51,39
714,009	78,6
714,193	-45,18
714,377	-27,36
714,561	1,08
714,745	71,39
714,929	93,72
715,113	20,31
715,298	-9,13
715,482	71,39
715,666	-39,57
715,85	14,9
716,034	5,99
716,218	-4,92
716,402	-3,02
716,586	15,01
716,77	-3,52
716,954	55,66
717,138	-15,24
717,322	-47,89
717,506	-13,14
717,689	-2,12
717,873	-34,77
718,057	22,32
718,241	1,29
718,425	12,9
718,609	26,42
718,793	21,31
718,976	37,54
719,16	50,26
719,344	34,63
719,528	66,88
719,711	13
719,895	82,2
720,079	95,62
720,263	66,48
720,446	-15,84
720,63	-62,91
720,814	-101,86
720,997	-8,83
721,181	-0,32
721,364	32,83
721,548	21,11
721,732	-14,64
721,915	56,47
722,099	26,92
722,282	40,64
722,466	60,57
722,649	-82,14
722,833	23,62
723,016	15,21
723,2	23,82
723,383	-27,76
723,567	38,44
723,75	16,41
723,934	-1,42
724,117	5,59
724,3	-15,54
724,484	-6,53
724,667	-26,76
724,85	14,9
725,034	19,21
725,217	-19,54
725,4	24,22
725,584	91,42
725,767	-59,4
725,95	51,76
726,133	-38,37
726,317	27,32
726,5	7,29
726,683	24,72
726,866	44,35
727,049	-26,35
727,232	5,89
727,416	-9,73
727,599	24,62
727,782	-55,7
727,965	-20,45
728,148	121,66
728,331	87,81
728,514	44,65
728,697	-7,13
728,88	-49,59
729,063	26,92
729,246	-50,69
729,429	11,9
729,612	-12,63
729,795	26,52
729,978	68,78
730,161	75,69
730,344	-6,53
730,526	17,71
730,709	51,26
730,892	50,56
731,075	5,09
731,258	36,54
731,441	59,57
731,623	8,8
731,806	-30,76
731,989	18,21
732,172	-86,44
732,354	11,5
732,537	115,65
732,72	-62,11
732,903	46,15
733,085	19,11
733,268	61,87
733,451	8,2
733,633	54,96
733,816	65,28
733,998	-16,24
734,181	-88,44
734,364	-5,02
734,546	29,13
734,729	16,21
734,911	-4,12
735,094	4,79
735,276	46,55
735,459	21,61
735,641	-36,77
735,824	-39,67
736,006	0,38
736,188	59,27
736,371	11,3
736,553	28,02
736,736	40,44
736,918	-34,67
737,1	6,69
737,283	-83,24
737,465	7,79
737,647	-1,02
737,83	-63,01
738,012	42,95
738,194	41,04
738,376	-40,17
738,559	-15,84
738,741	-2,02
738,923	14,8
739,105	1,19
739,287	16,91
739,469	39,14
739,652	27,82
739,834	35,03
740,016	67,28
740,198	35,23
740,38	-17,24
740,562	-16,34
740,744	92,72
740,926	-14,74
741,108	14,8
741,29	28,02
741,472	1,99
741,654	14
741,836	46,95
742,018	40,94
742,2	91,22
742,382	-9,13
742,564	53,36
742,746	16,61
742,928	36,04
743,109	-20,75
743,291	-55,8
743,473	-37,57
743,655	-32,46
743,837	-29,86
744,019	21,21
744,2	26,12
744,382	0,18
744,564	-59,2
744,746	-64,51
744,927	36,54
745,109	-3,92
745,291	16,41
745,472	-9,13
745,654	33,13
745,836	25,52
746,017	-19,65
746,199	31,73
746,38	8,6
746,562	-76,33
746,744	24,22
746,925	12,3
747,107	43,85
747,288	14,6
747,47	-28,16
747,651	-46,88
747,833	-73,72
748,014	15,61
748,195	92,82
748,377	36,34
748,558	20,91
748,74	26,62
748,921	36,84
749,102	61,17
749,284	-18,54
749,465	85,51
749,646	3,39
749,828	-3,72
750,009	23,32
750,19	18,31
750,372	84,71
750,553	38,94
750,734	26,32
750,915	-58,8
751,096	62,67
751,278	20,61
751,459	87,91
751,64	17,51
751,821	49,86
752,002	-37,87
752,183	14,2
752,364	5,79
752,546	45,15
752,727	-4,92
752,908	36,84
753,089	-9,63
753,27	73,99
753,451	-1,22
753,632	-12,03
753,813	-45,08
753,994	-14,84
754,175	2,89
754,356	34,43
754,536	27,92
754,717	-45,78
754,898	65,18
755,079	72,09
755,26	42,85
755,441	56,67
755,622	16,41
755,802	84,81
755,983	-43,58
756,164	-2,22
756,345	42,34
756,526	13,4
756,706	30,73
756,887	40,94
757,068	90,71
757,248	31,23
757,429	36,74
757,61	-5,02
757,79	33,53
757,971	22,02
758,152	-13,14
758,332	-72,22
758,513	27,92
758,693	12,9
758,874	42,34
759,055	50,76
759,235	-2,02
759,416	-45,58
759,596	10,5
759,777	72,29
759,957	-51,09
760,137	60,37
760,318	5,79
760,498	54,26
760,679	25,72
760,859	7,29
761,039	51,86
761,22	69,18
761,4	28,93
761,581	90,31
761,761	-8,03
761,941	102,23
762,121	-0,02
762,302	-35,17
762,482	70,19
762,662	-28,36
762,842	3,69
763,023	30,53
763,203	-59,8
763,383	26,82
763,563	25,32
763,743	15,21
763,923	6,69
764,104	54,76
764,284	-32,96
764,464	-6,03
764,644	-8,73
764,824	11,5
765,004	-28,36
765,184	15,71
765,364	-28,96
765,544	-30,66
765,724	-11,73
765,904	5,09
766,084	-5,72
766,264	13,5
766,444	33,13
766,624	1,08
766,804	-58,2
766,983	38,94
767,163	71,49
767,343	7,29
767,523	69,88
767,703	69,78
767,883	65,18
768,062	-26,76
768,242	-7,73
768,422	-4,32
768,602	18,01
768,781	-40,68
768,961	-32,56
769,141	-9,53
769,32	1,29
769,5	22,72
769,68	-14,04
769,859	-5,22
770,039	48,95
770,219	13,4
770,398	-57,1
770,578	32,53
770,757	-9,43
770,937	6,29
771,116	-21,45
771,296	8,2
771,475	-28,66
771,655	-46,18
771,834	23,02
772,014	9,6
772,193	111,75
772,373	16,51
772,552	-37,57
772,731	-28,16
772,911	-11,13
773,09	34,83
773,269	14,5
773,449	43,85
773,628	47,55
773,807	-9,63
773,987	-11,93
774,166	-15,94
774,345	40,64
774,524	-35,27
774,704	-23,75
774,883	-6,43
775,062	-3,12
775,241	63,88
775,42	33,33
775,6	55,26
775,779	-36,87
775,958	19,81
776,137	50,66
776,316	21,31
776,495	48,35
776,674	-70,22
776,853	-3,22
777,032	-8,33
777,211	33,73
777,39	-57,4
777,569	23,02
777,748	21,51
777,927	-17,44
778,106	-1,22
778,285	25,62
778,464	-18,44
778,643	30,23
778,822	-28,76
779	56,26
779,179	-7,43
779,358	24,32
779,537	-16,14
779,716	-30,06
779,894	4,89
780,073	14,4
780,252	-25,65
780,431	-33,57
780,609	-33,26
780,788	29,63
780,967	-43,38
781,145	62,97
781,324	-11,83
781,503	-45,18
781,681	-32,46
781,86	-1,22
782,039	21,21
782,217	-34,47
782,396	-1,52
782,574	-44,68
782,753	68,18
782,931	53,46
783,11	35,13
783,288	-35,97
783,467	74,29
783,645	-78,83
783,824	51,86
784,002	-76,33
784,18	-13,34
784,359	15,01
784,537	-55,4
784,716	16,11
784,894	47,85
785,072	-86,34
785,251	32,43
785,429	-0,42
785,607	1,49
785,785	-21,25
785,964	38,34
786,142	-150,84
786,32	35,03
786,498	-43,48
786,677	43,55
786,855	5,59
787,033	20,51
787,211	-51,39
787,389	38,64
787,567	32,73
787,745	4,39
787,923	49,56
788,102	8,4
788,28	46,05
788,458	-9,23
788,636	-9,23
788,814	2,39
788,992	47,25
789,17	19,81
789,348	51,66
789,526	55,06
789,703	-25,85
789,881	6,79
790,059	-33,57
790,237	14
790,415	-2,12
790,593	18,51
790,771	50,86
790,949	20,01
791,126	64,08
791,304	-24,55
791,482	-24,25
791,66	1,69
791,837	25,62
792,015	18,31
792,193	-17,44
792,371	91,82
792,548	67,78
792,726	38,74
792,904	-39,97
793,081	-32,36
793,259	-56,8
793,436	53,46
793,614	2,49
793,792	7,19
793,969	76,19
794,147	41,34
794,324	87,01
794,502	35,23
794,679	-66,51
794,857	43,85
795,034	43,55
795,212	-25,65
795,389	30,03
795,567	49,15
795,744	53,46
795,921	-17,84
796,099	-32,36
796,276	7,29
796,453	31,33
796,631	-30,66
796,808	-33,06
796,985	5,79
797,163	95,72
797,34	-26,76
797,517	27,82
797,694	-28,46
797,872	-12,84
798,049	-2,22
798,226	32,03
798,403	42,24
798,58	93,52
798,757	-30,46
798,935	40,84
799,112	-36,77
799,289	-23,85
799,466	-28,06
799,643	71,49
799,82	43,25
799,997	57,97
800,174	46,75
800,351	-33,26
800,528	86,91
800,705	3,89
800,882	8,7
801,059	22,72
801,236	30,63
801,413	-37,07
801,589	-0,52
801,766	-11,03
801,943	27,12
802,12	78,7
802,297	42,85
802,474	-17,24
802,651	-0,02
802,827	26,22
803,004	29,53
803,181	42,04
803,358	73,39
803,534	-11,53
803,711	-47,89
803,888	-22,95
804,064	-3,72
804,241	-62,51
804,418	-38,37
804,594	-11,13
804,771	-85,84
804,947	91,22
805,124	-42,98
805,301	70,69
805,477	53,76
805,654	30,53
805,83	-43,98
806,007	10,6
806,183	39,84
806,36	24,82
806,536	-39,97
806,712	-37,47
806,889	-20,65
807,065	-30,36
807,242	-12,63
807,418	28,32
807,594	37,94
807,771	42,95
807,947	-54,7
808,123	35,03
808,3	9,7
808,476	10,9
808,652	-26,25
808,829	-3,02
809,005	53,36
809,181	-28,86
809,357	38,54
809,533	-7,03
809,71	46,55
809,886	28,12
810,062	101,93
810,238	-48,39
810,414	65,58
810,59	-17,24
810,766	-4,32
810,942	13,1
811,118	4,59
811,294	-1,22
811,47	-20,35
811,646	90,41
811,822	-1,42
811,998	62,87
812,174	-27,96
812,35	18,41
812,526	5,09
812,702	-11,33
812,878	2,19
813,054	9,9
813,23	-94,55
813,405	47,15
813,581	3,49
813,757	18,71
813,933	80,2
814,109	-34,57
814,284	109,34
814,46	-4,72
814,636	-38,77
814,812	-25,95
814,987	-31,26
815,163	50,66
815,339	-14,74
815,514	-14,44
815,69	-25,25
815,866	-11,83
816,041	10
816,217	39,14
816,392	24,92
816,568	19,91
816,743	32,13
816,919	28,72
817,094	-1,02
817,27	-29,66
817,445	38,84
817,621	-32,46
817,796	56,97
817,972	-42,98
818,147	-54,1
818,322	-11,33
818,498	91,42
818,673	-9,43
818,849	-19,85
819,024	-69,32
819,199	30,33
819,375	20,81
819,55	41,54
819,725	33,93
819,9	-2,52
820,076	42,95
820,251	-28,16
820,426	100,73
820,601	71,19
820,776	8,2
820,952	35,63
821,127	29,33
821,302	49,46
821,477	-23,65
821,652	21,41
821,827	-5,72
822,002	-16,64
822,177	-31,46
822,352	-3,72
822,527	-4,12
822,702	-34,27
822,877	5,99
823,052	-21,25
823,227	33,03
823,402	14,4
823,577	44,05
823,752	38,14
823,927	-36,77
824,102	69,58
824,277	69,18
824,451	23,72
824,626	-29,26
824,801	3,59
824,976	82,9
825,151	1,39
825,325	57,37
825,5	19,21
825,675	58,77
825,85	58,97
826,024	75,09
826,199	46,75
826,374	-14,24
826,548	26,32
826,723	53,06
826,897	33,93
827,072	-28,26
827,247	35,74
827,421	-31,66
827,596	10
827,77	-6,93
827,945	49,46
828,119	-0,02
828,294	66,68
828,468	-23,45
828,643	11,6
828,817	11,4
828,992	-24,25
829,166	-19,65
829,34	66,88
829,515	41,74
829,689	57,87
829,864	-4,92
830,038	25,52
830,212	59,67
830,386	-26,76
830,561	58,17
830,735	-25,85
830,909	54,86
831,084	-30,56
831,258	33,03
831,432	18,81
831,606	38,64
831,78	16,81
831,954	93,32
832,129	55,86
832,303	5,39
832,477	-13,14
832,651	56,87
832,825	-49,79
832,999	85,61
833,173	-52,69
833,347	-20,55
833,521	-5,83
833,695	41,74
833,869	3,49
834,043	11,6
834,217	-26,86
834,391	7,59
834,565	-6,83
834,739	4,49
834,913	-10,93
835,086	-12,23
835,26	-14,34
835,434	-8,13
835,608	15,11
835,782	-2,12
835,956	-13,94
836,129	-21,35
836,303	76,99
836,477	13,3
836,651	1,59
836,824	35,03
836,998	-9,83
837,172	5,59
837,345	92,82
837,519	6,39
837,693	-2,12
837,866	9,7
838,04	-55,1
838,213	-44,78
838,387	-6,43
838,56	-33,67
838,734	17,11
838,907	52,26
839,081	31,43
839,254	15,61
839,428	-45,48
839,601	42,34
839,775	-96,56
839,948	21,81
840,122	40,14
840,295	40,34
840,468	-20,85
840,642	19,81
840,815	-19,65
840,988	-49,99
841,162	-6,83
841,335	42,75
841,508	22,32
841,682	-33,57
841,855	29,63
842,028	42,34
842,201	14
842,374	-9,73
842,548	43,65
842,721	5,89
842,894	-14,14
843,067	-103,87
843,24	-80,63
843,413	-24,25
843,586	37,84
843,759	-7,43
843,932	37,94
844,105	-41,38
844,278	-8,83
844,451	14,4
844,624	23,12
844,797	-7,63
844,97	7,39
845,143	-3,62
845,316	59,37
845,489	-53,19
845,662	-29,66
845,835	79
846,008	-49,39
846,18	-17,74
846,353	71,39
846,526	36,04
846,699	26,42
846,872	47,05
847,044	20,11
847,217	-37,47
847,39	-16,94
847,563	22,02
847,735	4,29
847,908	32,63
848,081	-41,28
848,253	-32,86
848,426	-37,57
848,598	42,24
848,771	36,14
848,944	-57,2
849,116	-70,72
849,289	-20,85
849,461	-14,14
849,634	9,8
849,806	1,79
849,979	6,59
850,151	65,88
850,324	97,02
850,496	15,31
850,668	-64,91
850,841	-19,75
851,013	40,64
851,186	-35,47
851,358	1,29
851,53	12,9
851,703	-6,03
851,875	-22,05
852,047	-17,64
852,219	-91,55
852,392	26,82
852,564	4,99
852,736	-68,02
852,908	-34,27
853,081	46,85
853,253	26,12
853,425	10,1
853,597	58,97
853,769	-18,44
853,941	30,53
854,113	-30,36
854,285	50,66
854,457	28,02
854,63	-25,45
854,802	39,14
854,974	-6,43
855,146	3,29
855,318	98,03
855,489	-16,44
855,661	76,09
855,833	0,78
856,005	38,84
856,177	-60,1
856,349	-6,83
856,521	-10,03
856,693	-85,14
856,865	-51,09
857,036	125,37
857,208	47,25
857,38	-23,95
857,552	-8,13
857,723	-2,22
857,895	-29,46
858,067	-39,37
858,239	8,4
858,41	-86,94
858,582	60,07
858,754	12,8
858,925	-123,6
859,097	12,1
859,268	44,35
859,44	-14,24
859,612	-53,89
859,783	-97,06
859,955	-41,28
860,126	-42,88
860,298	-18,14
860,469	40,34
860,641	-28,26
860,812	-56,5
860,983	-40,48
861,155	-16,74
861,326	-2,92
861,498	5,49
861,669	-4,72
861,84	55,86
862,012	35,53
862,183	26,22
862,354	49,86
862,526	-27,56
862,697	14
862,868	-23,35
863,039	-10,73
863,211	-104,47
863,382	-17,84
863,553	-36,77
863,724	-61,71
863,895	-21,75
864,066	83,3
864,238	-8,73
864,409	56,06
864,58	-68,52
864,751	38,74
864,922	-51,59
865,093	24,02
865,264	56,26
865,435	-33,87
865,606	22,92
865,777	-7,83
865,948	2,99
866,119	35,03
866,29	53,96
866,461	-17,44
866,632	-82,94
866,802	-14,54
866,973	-9,73
867,144	-36,77
867,315	1,69
867,486	-5,83
867,657	3,69
867,827	45,25
867,998	32,73
868,169	-37,47
868,34	48,45
868,51	-21,05
868,681	52,16
868,852	-21,55
869,022	48,25
869,193	80,9
869,364	1,19
869,534	-43,78
869,705	-9,93
869,875	1,08
870,046	-27,06
870,217	7,59
870,387	-13,64
870,558	72,19
870,728	14,7
870,899	-11,53
871,069	-15,54
871,239	52,86
871,41	-1,72
871,58	39,24
871,751	6,49
871,921	-18,04
872,091	-46,58
872,262	6,49
872,432	71,09
872,602	-121,89
872,773	20,71
872,943	-15,04
873,113	34,33
873,284	-46,08
873,454	-4,12
873,624	10,2
873,794	-16,34
873,964	29,13
874,135	-24,75
874,305	1,49
874,475	11,8
874,645	-76,13
874,815	7,89
874,985	-17,54
875,155	-23,15
875,325	-42,68
875,495	-10,33
875,665	-22,55
875,835	-21,95
876,005	-15,74
876,175	-3,62
876,345	-5,02
876,515	-9,33
876,685	59,57
876,855	52,46
877,025	-12,03
877,195	-81,74
877,365	0,48
877,534	0,78
877,704	-20,55
877,874	89,91
878,044	-37,67
878,214	25,12
878,383	1,69
878,553	30,33
878,723	-25,95
878,892	41,44
879,062	35,63
879,232	14,8
879,401	-18,14
879,571	-6,43
879,741	-115,38
879,91	-47,19
880,08	18,31
880,249	-6,83
880,419	-24,75
880,589	-3,22
880,758	-4,82
880,928	53,56
881,097	-45,98
881,267	7,29
881,436	-37,97
881,605	46,95
881,775	-107,07
881,944	-23,35
882,114	34,13
882,283	-27,56
882,452	24,52
882,622	-14,14
882,791	-68,22
882,96	-42,78
883,13	25,42
883,299	21,21
883,468	-14,24
883,637	-50,69
883,807	39,54
883,976	-23,75
884,145	-15,54
884,314	24,22
884,483	-30,26
884,652	0,18
884,822	-31,36
884,991	-23,25
885,16	-4,42
885,329	-8,33
885,498	-8,23
885,667	25,12
885,836	7,69
886,005	-44,58
886,174	21,92
886,343	33,93
886,512	-4,42
886,681	-14,24
886,85	60,07
887,019	49,86
887,187	17,81
887,356	9,5
887,525	-54,9
887,694	-17,04
887,863	-17,34
888,032	-16,74
888,2	-4,42
888,369	-37,47
888,538	18,41
888,707	-16,84
888,875	-52,09
889,044	-37,67
889,213	75,99
889,381	-10,13
889,55	-19,34
889,719	31,23
889,887	48,35
890,056	-68,42
890,224	54,06
890,393	-31,96
890,562	64,18
890,73	1,79
890,899	19,21
891,067	35,94
891,236	-18,04
891,404	27,92
891,573	-36,47
891,741	-72,22
891,909	-3,82
892,078	50,86
892,246	-11,73
892,415	3,89
892,583	21,71
892,751	8,2
892,92	12,2
893,088	-20,95
893,256	37,84
893,424	-19,54
893,593	31,73
893,761	-47,39
893,929	-69,02
894,097	19,91
894,265	-37,27
894,434	33,03
894,602	30,03
894,77	7,29
894,938	12,9
895,106	37,64
895,274	63,17
895,442	8,9
895,61	79,2
895,778	-20,45
895,946	-2,72
896,114	11,6
896,282	-85,14
896,45	30,93
896,618	35,43
896,786	13,7
896,954	7,89
897,122	-4,52
897,29	-28,86
897,458	-10,83
897,625	5,99
897,793	47,45
897,961	61,67
898,129	-35,37
898,297	45,35
898,464	10,6
898,632	9,5
898,8	48,65
898,968	-35,27
899,135	26,92
899,303	-7,93
899,471	-42,28
899,638	26,92
899,806	-13,14
899,973	25,22
900,141	66,98
900,309	-17,34
900,476	-4,22
900,644	73,09
900,811	-11,13
900,979	36,14
901,146	-3,22
901,314	3,39
901,481	-12,23
901,649	19,01
901,816	5,59
901,983	10,5
902,151	-12,94
