Data from Subt4__25__15-02-21-290.txt Node

Date: Thu Feb 19 15:02:21 CET 2026
User: Versuch 234
Spectrometer: USB4F05580
Trigger mode: 4
Integration Time (sec): 5,000000E-3
Scans to average: 20
Electric dark correction enabled: true
Nonlinearity correction enabled: false
Boxcar width: 0
XAxis mode: Wavelengths
Number of Pixels in Spectrum: 3648
>>>>>Begin Spectral Data<<<<<
197,409	103,43
197,623	103,43
197,837	103,43
198,051	172,03
198,265	121,16
198,479	-62,51
198,693	-19,44
198,907	-37,67
199,122	-10,83
199,336	-8,23
199,55	14,5
199,763	39,64
199,977	-0,12
200,191	77,3
200,405	17,61
200,619	25,92
200,833	-36,17
201,047	22,82
201,261	68,58
201,475	51,46
201,689	56,97
201,903	34,63
202,117	-30,36
202,331	-38,47
202,545	8,7
202,758	54,06
202,972	-36,97
203,186	-77,03
203,4	46,05
203,614	45,25
203,828	-30,26
204,041	47,15
204,255	33,33
204,469	10,5
204,683	50,66
204,897	6,99
205,11	53,16
205,324	9,1
205,538	-5,12
205,752	2,79
205,965	83,3
206,179	44,35
206,393	-59,1
206,606	16,11
206,82	6,19
207,034	31,03
207,248	15,31
207,461	5,99
207,675	11,1
207,889	37,04
208,102	43,95
208,316	-30,96
208,529	-10,93
208,743	9
208,957	29,43
209,17	-22,05
209,384	53,56
209,597	10,6
209,811	58,67
210,025	52,26
210,238	9,2
210,452	14,9
210,665	51,36
210,879	30,93
211,092	2,99
211,306	-1,72
211,519	-17,14
211,733	10,8
211,946	66,78
212,16	84,31
212,373	-1,12
212,587	20,31
212,8	-3,32
213,014	3,69
213,227	37,74
213,44	17,61
213,654	91,62
213,867	100,53
214,081	82,5
214,294	13,4
214,507	54,66
214,721	54,36
214,934	58,77
215,148	8,1
215,361	127,07
215,574	43,05
215,788	-88,14
216,001	87,91
216,214	2,49
216,428	35,03
216,641	28,32
216,854	51,16
217,067	33,93
217,281	50,06
217,494	47,15
217,707	75,39
217,92	-29,16
218,134	56,87
218,347	83,5
218,56	48,05
218,773	-35,57
218,986	85,11
219,2	48,25
219,413	4,79
219,626	-11,03
219,839	72,79
220,052	63,07
220,265	7,39
220,479	63,58
220,692	60,07
220,905	10,4
221,118	38,94
221,331	-32,56
221,544	33,03
221,757	43,35
221,97	61,07
222,183	-45,18
222,396	44,75
222,609	-4,02
222,822	-65,81
223,035	29,43
223,249	24,52
223,462	34,53
223,675	-35,27
223,887	30,03
224,1	52,86
224,313	61,47
224,526	73,79
224,739	7,99
224,952	90,41
225,165	9,2
225,378	25,02
225,591	116,65
225,804	4,99
226,017	74,69
226,23	-13,04
226,443	9,4
226,656	-5,72
226,868	-21,85
227,081	82,2
227,294	6,59
227,507	19,81
227,72	-8,63
227,933	74,79
228,145	44,15
228,358	-1,92
228,571	54,86
228,784	-20,95
228,997	-34,07
229,209	63,17
229,422	28,52
229,635	60,07
229,848	31,33
230,06	-31,46
230,273	-47,89
230,486	38,94
230,698	-72,22
230,911	14,5
231,124	-8,23
231,336	-22,45
231,549	38,34
231,762	72,59
231,974	-14,04
232,187	-45,08
232,4	73,19
232,612	-4,12
232,825	44,25
233,038	32,13
233,25	30,83
233,463	33,33
233,675	14,1
233,888	41,44
234,1	106,04
234,313	58,97
234,526	70,08
234,738	-9,33
234,951	-1,62
235,163	-29,26
235,376	29,83
235,588	-74,32
235,801	1,08
236,013	-46,48
236,226	52,26
236,438	27,22
236,65	80,3
236,863	-22,55
237,075	96,22
237,288	-37,27
237,5	-43,28
237,713	-17,94
237,925	-31,16
238,137	19,31
238,35	49,96
238,562	2,39
238,774	112,75
238,987	135,48
239,199	44,25
239,411	21,51
239,624	55,06
239,836	43,55
240,048	2,99
240,261	91,82
240,473	14,1
240,685	31,13
240,897	-13,04
241,11	19,81
241,322	51,76
241,534	23,92
241,746	27,82
241,959	82,6
242,171	20,11
242,383	-3,62
242,595	-19,54
242,807	4,59
243,02	39,64
243,232	54,06
243,444	-11,33
243,656	83,5
243,868	23,92
244,08	-54,2
244,293	-43,18
244,505	16,51
244,717	30,93
244,929	-15,74
245,141	1,08
245,353	-2,82
245,565	25,52
245,777	-15,54
245,989	22,92
246,201	-32,46
246,413	65,28
246,625	-23,05
246,837	8,2
247,049	15,31
247,261	85,21
247,473	25,42
247,685	48,65
247,897	56,57
248,109	-26,86
248,321	47,35
248,533	-77,63
248,745	-22,45
248,957	33,23
249,169	-16,84
249,381	48,85
249,593	-10,53
249,804	35,84
250,016	42,44
250,228	-19,44
250,44	62,97
250,652	27,02
250,864	60,87
251,075	9,7
251,287	0,98
251,499	84,41
251,711	48,75
251,923	11,8
252,134	42,65
252,346	1,08
252,558	48,75
252,77	-4,02
252,982	11,9
253,193	19,01
253,405	17,91
253,617	46,25
253,828	-28,56
254,04	75,59
254,252	95,62
254,463	46,15
254,675	1,29
254,887	-58,5
255,098	24,72
255,31	-14,64
255,522	89,01
255,733	18,81
255,945	74,99
256,157	11,5
256,368	-5,72
256,58	62,77
256,791	28,22
257,003	71,99
257,214	67,88
257,426	45,75
257,637	24,92
257,849	29,03
258,061	75,49
258,272	51,36
258,484	58,97
258,695	35,63
258,907	36,24
259,118	63,28
259,329	-39,97
259,541	20,91
259,752	62,87
259,964	85,81
260,175	-5,12
260,387	-66,91
260,598	23,02
260,809	41,74
261,021	3,29
261,232	16,01
261,444	27,92
261,655	55,76
261,866	-15,24
262,078	44,25
262,289	7,49
262,5	7,89
262,712	3,39
262,923	-4,02
263,134	-20,25
263,345	43,65
263,557	-60,4
263,768	-29,26
263,979	-23,45
264,191	1,19
264,402	-48,69
264,613	64,88
264,824	-17,64
265,035	-8,33
265,247	62,47
265,458	-41,78
265,669	-15,74
265,88	10,8
266,091	11
266,302	48,65
266,514	-26,46
266,725	-13,74
266,936	21,11
267,147	-37,17
267,358	-4,92
267,569	71,69
267,78	54,06
267,991	-4,72
268,202	58,67
268,414	39,84
268,625	79,7
268,836	-20,85
269,047	99,33
269,258	-42,68
269,469	4,79
269,68	38,14
269,891	4,89
270,102	76,49
270,313	16,51
270,524	12,3
270,735	9,5
270,945	41,84
271,156	82,2
271,367	36,84
271,578	58,07
271,789	-26,76
272	78,2
272,211	51,96
272,422	-8,53
272,633	63,48
272,844	-47,49
273,054	-25,05
273,265	26,12
273,476	-21,25
273,687	-6,53
273,898	3,29
274,109	45,75
274,319	-5,62
274,53	110,24
274,741	71,69
274,952	4,79
275,162	65,28
275,373	33,43
275,584	-10,43
275,795	-11,93
276,005	5,39
276,216	-19,85
276,427	44,55
276,637	11,5
276,848	2,89
277,059	-35,07
277,269	-13,74
277,48	6,59
277,691	51,46
277,901	12
278,112	-9,33
278,323	9,7
278,533	57,27
278,744	19,71
278,954	-22,95
279,165	15,01
279,376	13,1
279,586	-33,87
279,797	19,71
280,007	12,7
280,218	59,17
280,428	78,1
280,639	80
280,849	3,89
281,06	-0,92
281,27	-10,63
281,481	-24,55
281,691	24,02
281,902	1,19
282,112	14,1
282,322	87,41
282,533	2,79
282,743	49,56
282,954	46,25
283,164	-23,45
283,374	60,67
283,585	64,88
283,795	-45,18
284,006	27,62
284,216	19,31
284,426	16,41
284,637	-32,46
284,847	-22,55
285,057	50,76
285,268	62,57
285,478	20,11
285,688	58,27
285,898	-4,82
286,109	16,91
286,319	-40,07
286,529	57,67
286,739	-2,72
286,95	68,08
287,16	23,62
287,37	69,18
287,58	-5,22
287,79	54,06
288,001	46,55
288,211	34,03
288,421	43,95
288,631	52,66
288,841	15,91
289,051	2,19
289,261	47,75
289,471	-63,11
289,682	5,29
289,892	42,24
290,102	3,79
290,312	-15,04
290,522	14,5
290,732	42,75
290,942	55,96
291,152	16,71
291,362	41,54
291,572	-60,4
291,782	29,53
291,992	72,99
292,202	29,83
292,412	-49,89
292,622	34,13
292,832	81,5
293,042	27,92
293,252	27,62
293,462	45,45
293,672	9
293,881	29,53
294,091	13,2
294,301	7,59
294,511	47,25
294,721	75,39
294,931	86,71
295,141	4,19
295,35	50,66
295,56	-6,13
295,77	0,38
295,98	-32,06
296,19	76,09
296,4	41,54
296,609	-14,54
296,819	43,65
297,029	58,07
297,239	23,32
297,448	68,88
297,658	21,41
297,868	59,57
298,077	0,68
298,287	15,21
298,497	16,71
298,706	37,94
298,916	-11,63
299,126	61,87
299,335	41,44
299,545	3,79
299,755	-10,53
299,964	40,14
300,174	123,16
300,384	99,63
300,593	66,98
300,803	-0,62
301,012	27,52
301,222	50,36
301,431	-13,04
301,641	5,89
301,851	39,34
302,06	51,16
302,27	18,61
302,479	44,85
302,689	35,03
302,898	-17,64
303,107	17,31
303,317	48,55
303,526	98,23
303,736	102,73
303,945	35,63
304,155	-2,52
304,364	104,33
304,574	26,52
304,783	10,7
304,992	24,92
305,202	5,09
305,411	-2,72
305,62	75,39
305,83	75,19
306,039	22,82
306,248	75,09
306,458	-24,35
306,667	-47,39
306,876	56,06
307,086	28,32
307,295	6,89
307,504	27,42
307,713	22,62
307,923	-85,34
308,132	45,65
308,341	-18,24
308,55	26,52
308,76	-9,83
308,969	40,34
309,178	66,08
309,387	71,39
309,596	-19,24
309,805	37,44
310,015	12,3
310,224	-4,12
310,433	-25,35
310,642	-18,14
310,851	21,31
311,06	16,81
311,269	29,53
311,478	-0,32
311,687	-92,35
311,896	37,64
312,106	73,89
312,315	56,57
312,524	115,15
312,733	158,01
312,942	6,69
313,151	108,04
313,36	24,72
313,569	38,64
313,778	-5,52
313,987	-17,34
314,195	74,59
314,404	41,14
314,613	7,49
314,822	74,79
315,031	-1,42
315,24	-7,53
315,449	130,97
315,658	-15,74
315,867	-0,82
316,076	-28,96
316,284	57,37
316,493	77,7
316,702	46,35
316,911	55,16
317,12	32,13
317,329	86,21
317,537	121,16
317,746	-78,23
317,955	72,19
318,164	28,32
318,372	31,43
318,581	116,05
318,79	9,1
318,999	13,1
319,207	26,62
319,416	-70,92
319,625	31,23
319,833	22,72
320,042	90,51
320,251	44,75
320,459	1,89
320,668	18,21
320,877	52,36
321,085	-61,51
321,294	-54,4
321,502	51,06
321,711	2,79
321,92	26,12
322,128	-18,64
322,337	4,09
322,545	69,98
322,754	34,63
322,962	59,67
323,171	-16,64
323,379	0,78
323,588	49,15
323,796	0,28
324,005	59,77
324,213	65,98
324,422	100,43
324,63	-16,54
324,839	4,99
325,047	-1,02
325,256	34,03
325,464	27,42
325,672	68,28
325,881	10,5
326,089	58,67
326,297	19,71
326,506	-43,98
326,714	79,2
326,923	59,57
327,131	33,33
327,339	41,74
327,548	-0,42
327,756	-12,63
327,964	-11,63
328,172	-2,02
328,381	58,67
328,589	48,65
328,797	9,4
329,005	14,3
329,214	-23,35
329,422	58,77
329,63	5,59
329,838	136,28
330,046	-33,37
330,255	53,86
330,463	45,95
330,671	-2,52
330,879	104,53
331,087	30,63
331,295	53,36
331,503	45,95
331,712	18,11
331,92	63,58
332,128	91,82
332,336	61,27
332,544	-43,98
332,752	32,23
332,96	11,4
333,168	7,99
333,376	-86,64
333,584	29,33
333,792	74,29
334	45,95
334,208	13,4
334,416	86,81
334,624	40,14
334,832	0,78
335,04	15,21
335,248	31,23
335,456	38,64
335,664	-31,46
335,872	1,79
336,08	-35,67
336,287	-7,63
336,495	108,84
336,703	34,13
336,911	91,82
337,119	27,02
337,327	69,28
337,535	44,55
337,742	5,19
337,95	70,99
338,158	42,24
338,366	-4,62
338,573	22,12
338,781	47,75
338,989	122,06
339,197	82
339,404	0,08
339,612	39,94
339,82	-16,24
340,028	16,81
340,235	96,12
340,443	50,16
340,651	78,6
340,858	-74,83
341,066	-2,02
341,274	26,32
341,481	117,45
341,689	106,54
341,896	10,5
342,104	99,03
342,312	65,08
342,519	89,81
342,727	43,55
342,934	45,15
343,142	24,42
343,349	-16,44
343,557	149,6
343,765	-23,25
343,972	80,6
344,18	21,61
344,387	68,38
344,594	56,26
344,802	164,02
345,009	30,13
345,217	35,53
345,424	106,04
345,632	13,9
345,839	51,26
346,047	52,26
346,254	35,03
346,461	71,89
346,669	33,03
346,876	59,77
347,083	40,84
347,291	50,36
347,498	50,26
347,705	91,22
347,913	20,71
348,12	48,75
348,327	54,36
348,535	5,19
348,742	32,63
348,949	15,61
349,156	9,3
349,364	2,29
349,571	57,97
349,778	70,29
349,985	-26,35
350,192	45,45
350,4	72,99
350,607	86,91
350,814	75,39
351,021	16,41
351,228	59,97
351,435	91,62
351,643	38,04
351,85	60,27
352,057	109,84
352,264	105,74
352,471	49,96
352,678	116,05
352,885	108,64
353,092	23,82
353,299	25,62
353,506	62,77
353,713	73,59
353,92	1,19
354,127	82,4
354,334	35,13
354,541	34,33
354,748	76,39
354,955	120,36
355,162	112,05
355,369	50,96
355,576	81,9
355,783	101,93
355,99	54,36
356,197	13,3
356,404	34,03
356,611	30,93
356,817	10
357,024	56,37
357,231	75,69
357,438	46,15
357,645	63,78
357,852	63,07
358,058	85,51
358,265	66,28
358,472	73,29
358,679	70,89
358,885	44,45
359,092	109,84
359,299	-25,05
359,506	43,15
359,712	21,41
359,919	20,91
360,126	16,01
360,333	-1,72
360,539	74,29
360,746	48,65
360,953	77,3
361,159	-18,44
361,366	-6,03
361,572	58,07
361,779	47,05
361,986	58,97
362,192	36,54
362,399	86,81
362,605	12,9
362,812	18,61
363,019	25,02
363,225	37,54
363,432	93,72
363,638	-5,62
363,845	33,33
364,051	106,04
364,258	34,13
364,464	126,37
364,671	18,21
364,877	97,42
365,084	112,65
365,29	8,9
365,496	128,37
365,703	14,3
365,909	12,3
366,116	100,93
366,322	53,76
366,528	44,75
366,735	33,43
366,941	16,51
367,147	71,19
367,354	138,18
367,56	85,61
367,766	90,92
367,973	91,52
368,179	36,34
368,385	38,04
368,592	118,35
368,798	83,7
369,004	71,39
369,21	72,49
369,417	100,33
369,623	8,6
369,829	74,99
370,035	73,79
370,241	106,24
370,448	30,73
370,654	73,99
370,86	27,02
371,066	100,33
371,272	66,38
371,478	94,62
371,684	29,03
371,891	119,86
372,097	75,39
372,303	8,5
372,509	45,35
372,715	35,33
372,921	78
373,127	76,09
373,333	115,85
373,539	47,05
373,745	74,19
373,951	118,46
374,157	43,55
374,363	60,67
374,569	15,71
374,775	69,78
374,981	21,81
375,187	5,89
375,393	64,48
375,599	89,51
375,804	61,67
376,01	74,39
376,216	72,29
376,422	44,85
376,628	74,39
376,834	105,54
377,04	75,89
377,246	61,47
377,451	28,72
377,657	19,51
377,863	87,01
378,069	-4,82
378,274	94,62
378,48	102,83
378,686	99,53
378,892	86,41
379,097	46,05
379,303	100,63
379,509	68,28
379,715	103,13
379,92	114,75
380,126	118,96
380,332	-8,83
380,537	43,15
380,743	150,1
380,949	54,56
381,154	43,15
381,36	68,18
381,565	75,79
381,771	106,14
381,977	28,52
382,182	42,55
382,388	92,02
382,593	72,39
382,799	52,36
383,004	21,31
383,21	91,52
383,415	12,5
383,621	18,11
383,826	52,66
384,032	85,11
384,237	33,43
384,443	81,8
384,648	26,42
384,854	139,89
385,059	30,13
385,265	14
385,47	34,23
385,675	97,83
385,881	108,14
386,086	18,91
386,291	50,16
386,497	100,83
386,702	51,46
386,907	49,76
387,113	33,53
387,318	97,52
387,523	23,92
387,729	58,27
387,934	109,44
388,139	114,15
388,344	82,6
388,55	105,94
388,755	37,34
388,96	116,75
389,165	167,43
389,371	119,26
389,576	48,25
389,781	189,76
389,986	44,15
390,191	111,75
390,396	56,77
390,601	125,77
390,807	81,9
391,012	110,34
391,217	83,9
391,422	77,9
391,627	86,81
391,832	-10,73
392,037	142,09
392,242	183,05
392,447	92,32
392,652	23,12
392,857	110,54
393,062	25,52
393,267	111,65
393,472	58,07
393,677	26,62
393,882	83,6
394,087	117,35
394,292	133,98
394,497	112,65
394,702	82,8
394,907	135,48
395,112	79,2
395,317	74,49
395,521	83,1
395,726	64,88
395,931	59,37
396,136	119,46
396,341	-6,33
396,546	100,13
396,75	43,75
396,955	47,15
397,16	23,22
397,365	80,5
397,57	92,62
397,774	78,4
397,979	82,3
398,184	36,24
398,389	151,7
398,593	141,09
398,798	54,96
399,003	82,4
399,207	102,23
399,412	85,81
399,617	32,93
399,821	48,45
400,026	218,6
400,231	153,11
400,435	102,93
400,64	52,16
400,844	52,66
401,049	98,33
401,254	73,89
401,458	83,5
401,663	53,96
401,867	124,36
402,072	120,66
402,276	102,23
402,481	95,62
402,685	142,29
402,89	107,74
403,094	148,3
403,299	132,48
403,503	153,11
403,708	28,22
403,912	88,41
404,116	62,97
404,321	183,85
404,525	110,94
404,73	168,03
404,934	139,49
405,138	115,75
405,343	230,32
405,547	137,08
405,751	125,87
405,956	97,93
406,16	128,77
406,364	187,15
406,569	151,4
406,773	67,08
406,977	70,79
407,181	54,76
407,386	179,14
407,59	103,63
407,794	114,95
407,998	114,15
408,202	131,37
408,407	142,19
408,611	127,87
408,815	157,31
409,019	108,54
409,223	204,28
409,427	153,91
409,632	238,33
409,836	190,86
410,04	146,1
410,244	158,51
410,448	147,7
410,652	235,02
410,856	115,25
411,06	215,5
411,264	221,7
411,468	176,34
411,672	172,93
411,876	279,89
412,08	233,32
412,284	215,3
412,488	211,39
412,692	277,49
412,896	214,09
413,1	257,76
413,304	231,02
413,508	260,86
413,712	244,24
413,916	259,76
414,12	302,12
414,323	264,77
414,527	287,7
414,731	225,61
414,935	362,51
415,139	380,84
415,343	332,57
415,546	355,9
415,75	310,93
415,954	387,85
416,158	258,26
416,361	274,98
416,565	309,63
416,769	365,71
416,973	378,03
417,176	393,75
417,38	285
417,584	286,9
417,788	457,65
417,991	420,99
418,195	396,56
418,398	449,64
418,602	409,48
418,806	447,13
419,009	438,62
419,213	549,88
419,417	514,53
419,62	503,51
419,824	559,89
420,027	501,21
420,231	522,44
420,434	530,95
420,638	539,57
420,841	668,45
421,045	621,38
421,248	637,11
421,452	642,51
421,655	678,07
421,859	738,15
422,062	649,22
422,266	770,4
422,469	720,83
422,673	758,38
422,876	763,79
423,079	733,05
423,283	826,68
423,486	887,87
423,689	861,23
423,893	962,48
424,096	1025,97
424,299	1030,68
424,503	949,36
424,706	973,69
424,909	1061,82
425,113	1060,22
425,316	1123,41
425,519	1153,36
425,722	1281,54
425,926	1177,69
426,129	1272,73
426,332	1201,02
426,535	1329,01
426,739	1289,55
426,942	1315,19
427,145	1328,81
427,348	1492,75
427,551	1476,02
427,754	1510,37
427,957	1536,61
428,161	1561,45
428,364	1671,01
428,567	1693,54
428,77	1736,8
428,973	1889,02
429,176	1930,38
429,379	1949,81
429,582	1876
429,785	2092,72
429,988	2057,27
430,191	2349,59
430,394	2202,88
430,597	2355,3
430,8	2502,21
431,003	2590,34
431,206	2443,73
431,409	2686,58
431,612	2625,89
431,815	2916,01
432,018	3065,73
432,221	3092,47
432,423	3148,25
432,626	3290,25
432,829	3376,68
433,032	3583,68
433,235	3647,07
433,438	3695,94
433,64	3618,73
433,843	3971,84
434,046	3999,48
434,249	3968,24
434,452	4304,22
434,654	4271,07
434,857	4484,78
435,06	4542,57
435,263	4877,35
435,465	4967,48
435,668	5023,87
435,871	5353,74
436,073	5343,03
436,276	5708,76
436,479	5638,46
436,681	6014,8
436,884	5956,32
437,087	6151,3
437,289	6401,66
437,492	6632
437,694	6726,03
437,897	6872,25
438,1	6942,55
438,302	7127,82
438,505	7414,23
438,707	7689,33
438,91	7855,77
439,112	8078,39
439,315	8123,06
439,517	8741,96
439,72	8914,21
439,922	9015,45
440,125	9282,84
440,327	9494,45
440,529	9606,71
440,732	10686,17
440,934	10008,19
441,137	10772,5
441,339	10845,1
441,541	11276,43
441,744	11192,51
441,946	11662,69
442,148	12095,12
442,351	12679,86
442,553	12329,66
442,755	13166,77
442,958	13021,56
443,16	13604,91
443,362	13399,51
443,565	14060,27
443,767	14291,8
443,969	14853,21
444,171	14724,93
444,373	15704,85
444,576	16383,73
444,778	16849,21
444,98	16452,03
445,182	17708,45
445,384	17765,84
445,586	19094,76
445,789	18536,55
445,991	19116,29
446,193	19757,82
446,395	20369,31
446,597	20379,23
446,799	20764,08
447,001	21880,1
447,203	22619,97
447,405	22299,91
447,607	23124,3
447,809	23935,08
448,011	24114,04
448,213	24602,35
448,415	25056,91
448,617	25242,27
448,819	26529,84
449,021	25446,37
449,223	28653,72
449,425	27447,57
449,627	29532,69
449,829	28154,7
450,031	31263
450,233	29611,71
450,435	30981,49
450,636	31477,21
450,838	31716,46
451,04	33132,71
451,242	32697,08
451,444	33101,97
451,646	34461,94
451,847	35666,19
452,049	35696,33
452,251	36730,73
452,453	37763,53
452,654	38021,2
452,856	39010,43
453,058	42242,12
453,26	40674,95
453,461	40374,01
453,663	41340,41
453,865	44751,76
454,066	46973,28
454,268	43811,49
454,47	44497,39
454,671	45972,53
454,873	46020,49
455,074	45687,91
455,276	48456,33
455,478	46605,94
455,679	48989,5
455,881	51184,28
456,082	51397,19
456,284	50200,55
456,485	51800,17
456,687	52652,01
456,888	54220,58
457,09	52942,73
457,291	53973,92
457,493	54319,22
457,694	56778,29
457,896	55422,42
458,097	56306,41
458,299	57055,99
458,5	56084,78
458,701	56855,4
458,903	59648,05
459,104	59075,02
459,306	59336,1
459,507	58912,68
459,708	60513,9
459,91	59623,91
460,111	60414,66
460,312	62082,58
460,514	60576,6
460,715	62614,45
460,916	62653,11
461,117	62240,71
461,319	62831,46
461,52	62696,07
461,721	62924,2
461,922	62748,34
462,124	62034,21
462,325	63129,1
462,526	62353,87
462,727	62287,18
462,928	62867,12
463,129	61067,61
463,331	63041,57
463,532	61251,17
463,733	62446,81
463,934	61309,16
464,135	62969,26
464,336	59325,88
464,537	63381,56
464,738	60603,13
464,939	61182,97
465,14	60090,89
465,341	62282,77
465,542	60637,78
465,743	61019,44
465,944	58257,93
466,145	60555,67
466,346	60036,01
466,547	58450,91
466,748	56926,8
466,949	58727,42
467,15	57392,38
467,351	55967,21
467,552	57377,56
467,753	55173,66
467,953	55288,13
468,154	54152,58
468,355	52158,49
468,556	52887,65
468,757	53483,21
468,958	52938,52
469,158	51256,38
469,359	50239,01
469,56	50019,09
469,761	48694,87
469,962	50849,19
470,162	49977,23
470,363	48955,25
470,564	49000,92
470,764	47062,21
470,965	46704,69
471,166	45268,4
471,366	47325,19
471,567	44840,58
471,768	45448,57
471,968	44350,37
472,169	43349,22
472,37	41825,71
472,57	42608,65
472,771	42627,88
472,971	42572,6
473,172	41558,53
473,373	41358,44
473,573	40032,82
473,774	40559,58
473,974	41104,37
474,175	41599,69
474,375	39559,33
474,576	38630,18
474,776	38801,23
474,977	38949,34
475,177	37902,23
475,377	36579,41
475,578	35988,05
475,778	36822,96
475,979	35182,88
476,179	35976,13
476,379	35684,31
476,58	34624,17
476,78	33868,78
476,981	33569,05
477,181	33353,93
477,381	32708,4
477,582	32146,48
477,782	33125,5
477,982	31934,58
478,182	32034,22
478,383	31114,89
478,583	31264,3
478,783	30742,25
478,983	31151,74
479,184	29830,83
479,384	30332,15
479,584	29040,78
479,784	29146,43
479,984	28333,36
480,184	28087,6
480,385	27916,95
480,585	28481,87
480,785	27192,9
480,985	27297,25
481,185	26460,04
481,385	26665,74
481,585	25549,32
481,785	26272,17
481,985	25517,67
482,185	25753,32
482,385	24409,47
482,585	24345,17
482,785	24195,36
482,985	23549,92
483,185	23131,62
483,385	23051,7
483,585	22576,01
483,785	22255,24
483,985	21396,6
484,185	21790,47
484,385	21232,56
484,585	21060,41
484,785	20406,46
484,985	20513,62
485,185	19769,14
485,384	19770,54
485,584	19385,79
485,784	18886,96
485,984	18404,26
486,184	18493,29
486,383	18159,51
486,583	17796,98
486,783	17229,66
486,983	17134,72
487,183	16782,21
487,382	16614,57
487,582	16189,15
487,782	16030,82
487,981	15724,28
488,181	15523,79
488,381	15173,88
488,58	14962,77
488,78	14616,27
488,98	14415,98
489,179	14086,9
489,379	13995,47
489,579	13538,21
489,778	13707,55
489,978	13214,94
490,177	12794,83
490,377	12768,09
490,576	12420,59
490,776	12254,95
490,975	12161,31
491,175	11859,58
491,374	11669,9
491,574	11455,59
491,773	11138,53
491,973	11051,1
492,172	11053,31
492,372	10700,49
492,571	10601,95
492,771	10436,81
492,97	10342,38
493,169	9951,31
493,369	10154,9
493,568	9703,65
493,767	9679,21
493,967	9447,88
494,166	9403,82
494,365	9135,03
494,565	8971,99
494,764	8827,88
494,963	8745,56
495,163	8659,24
495,362	8474,17
495,561	8191,76
495,76	8477,87
495,959	7965,43
496,159	7911,35
496,358	7734,8
496,557	7676,21
496,756	7436,46
496,955	7298,56
497,155	7256,3
497,354	7049,1
497,553	6905,49
497,752	6833,69
497,951	6692,99
498,15	6604,76
498,349	6309,13
498,548	6320,04
498,747	6225,61
498,946	5994,57
499,145	5902,94
499,344	5879,71
499,543	5746,21
499,742	5639,76
499,941	5484,63
500,14	5373,37
500,339	5197,62
500,538	5246,69
500,737	5161,87
500,936	5076,64
501,135	5006,14
501,334	5002,13
501,533	4856,72
501,732	4842,9
501,931	4626,69
502,129	4540,16
502,328	4433,01
502,527	4371,32
502,726	4213,89
502,925	4220,3
503,123	4161,72
503,322	4089,41
503,521	4028,82
503,72	3914,56
503,919	3884,01
504,117	3841,95
504,316	3675,41
504,515	3649,17
504,713	3597,7
504,912	3534,61
505,111	3489,04
505,309	3445,48
505,508	3354,15
505,707	3362,96
505,905	3206,03
506,104	3216,05
506,302	3097,27
506,501	3055,11
506,7	2967,79
506,898	3004,94
507,097	2885,37
507,295	2850,11
507,494	2795,94
507,692	2794,33
507,891	2806,55
508,089	2671,46
508,288	2565,3
508,486	2603,96
508,685	2439,62
508,883	2548,78
509,082	2472,67
509,28	2534,76
509,478	2359,3
509,677	2362,11
509,875	2414,48
510,073	2343,68
510,272	2267,47
510,47	2243,64
510,669	2139,89
510,867	2165,32
511,065	2105,74
511,263	2078
511,462	2086,21
511,66	2058,37
511,858	1952,01
512,056	1967,03
512,255	1871,5
512,453	1838,55
512,651	1778,66
512,849	1879,41
513,048	1804,4
513,246	1821,92
513,444	1767,75
513,642	1757,23
513,84	1677,31
514,038	1635,35
514,236	1610,92
514,435	1647,57
514,633	1494,75
514,831	1558,34
515,029	1503,56
515,227	1555,14
515,425	1521,29
515,623	1444,28
515,821	1461,8
516,019	1438,17
516,217	1396,21
516,415	1398,91
516,613	1387,59
516,811	1329,91
517,009	1380,08
517,207	1372,97
517,405	1370,07
517,602	1272,83
517,8	1273,43
517,998	1260,71
518,196	1263,31
518,394	1305,38
518,592	1194,21
518,79	1148,25
518,987	1185,5
519,185	1158,16
519,383	1127,72
519,581	1070,74
519,779	1123,11
519,976	1096,97
520,174	1020,56
520,372	1011,45
520,57	1069,33
520,767	1052,21
520,965	1015,96
521,163	986,31
521,36	941,55
521,558	968,09
521,756	881,36
521,953	955,67
522,151	942,55
522,349	881,16
522,546	876,75
522,744	874,15
522,941	838,1
523,139	764,09
523,336	821,97
523,534	876,65
523,731	696,09
523,929	747,47
524,126	772,2
524,324	668,35
524,521	693,49
524,719	660,14
524,916	686,98
525,114	705,21
525,311	749,27
525,509	561,3
525,706	659,24
525,903	579,92
526,101	715,72
526,298	656,03
526,496	648,12
526,693	588,94
526,89	660,34
527,088	645,12
527,285	548,68
527,482	563,9
527,679	541,47
527,877	486,79
528,074	505,32
528,271	534,56
528,468	523,84
528,666	571,21
528,863	554,99
529,06	512,73
529,257	513,03
529,454	511,32
529,652	507,12
529,849	456,65
530,046	478,28
530,243	427,6
530,44	454,84
530,637	587,74
530,834	406,97
531,031	404,47
531,228	367,62
531,425	450,64
531,622	442,62
531,819	398,16
532,016	473,97
532,213	432,31
532,41	381,94
532,607	356,9
532,804	303,12
533,001	390,15
533,198	347,49
533,395	374,33
533,592	365,91
533,789	357,7
533,986	363,31
534,183	355,9
534,38	329,16
534,576	362,31
534,773	351,49
534,97	411,38
535,167	344,68
535,364	374,13
535,561	364,31
535,757	313,24
535,954	376,53
536,151	343,38
536,348	345,68
536,544	218,5
536,741	296,71
536,938	269,57
537,134	292,21
537,331	277,79
537,528	345,58
537,724	291,31
537,921	295,31
538,118	304,62
538,314	211,19
538,511	277,39
538,707	235,73
538,904	260,76
539,101	278,59
539,297	249,85
539,494	275,18
539,69	287,1
539,887	238,53
540,083	232,42
540,28	262,06
540,476	217,6
540,673	183,25
540,869	155,31
541,066	238,53
541,262	253,65
541,458	265,07
541,655	253,45
541,851	318,24
542,048	173,03
542,244	168,93
542,44	192,56
542,637	186,35
542,833	216,8
543,029	184,25
543,226	138,38
543,422	285,4
543,618	230,82
543,814	159,51
544,011	149,5
544,207	145,59
544,403	236,03
544,599	195,97
544,796	170,63
544,992	114,65
545,188	148,1
545,384	161,92
545,58	240,73
545,776	148,6
545,972	179,14
546,169	157,21
546,365	120,46
546,561	194,57
546,757	119,46
546,953	181,45
547,149	157,01
547,345	134,48
547,541	140,09
547,737	126,67
547,933	179,94
548,129	153,11
548,325	175,44
548,521	140,79
548,717	135,88
548,913	121,56
549,109	237,43
549,305	116,75
549,501	158,21
549,697	143,09
549,892	146,5
550,088	143,49
550,284	108,84
550,48	104,03
550,676	174,04
550,872	193,06
551,067	143,09
551,263	143,69
551,459	141,69
551,655	184,55
551,85	72,99
552,046	194,57
552,242	126,67
552,438	41,64
552,633	143,29
552,829	87,71
553,025	197,97
553,22	65,78
553,416	-24,75
553,612	68,48
553,807	154,71
554,003	197,47
554,198	143,99
554,394	-14,14
554,59	151,6
554,785	70,79
554,981	112,05
555,176	131,17
555,372	110,14
555,567	58,47
555,763	173,74
555,958	73,79
556,154	96,62
556,349	99,83
556,545	72,59
556,74	116,05
556,936	57,77
557,131	109,34
557,326	148,5
557,522	100,83
557,717	123,26
557,912	142,69
558,108	129,77
558,303	91,52
558,498	145,69
558,694	148,5
558,889	173,53
559,084	22,92
559,28	81
559,475	97,83
559,67	169,13
559,865	149,7
560,061	124,36
560,256	107,04
560,451	39,64
560,646	45,05
560,841	93,42
561,037	0,68
561,232	49,76
561,427	129,17
561,622	62,47
561,817	86,11
562,012	36,74
562,207	26,62
562,402	-21,55
562,597	69,38
562,792	64,18
562,987	132,07
563,182	79,1
563,377	69,08
563,572	48,05
563,767	164,22
563,962	81
564,157	90,81
564,352	116,85
564,547	95,02
564,742	118,25
564,937	8,3
565,132	93,82
565,327	47,35
565,522	53,06
565,716	114,35
565,911	88,61
566,106	77,8
566,301	87,31
566,496	104,03
566,691	65,48
566,885	123,46
567,08	63,68
567,275	102,43
567,47	78,8
567,664	64,98
567,859	51,06
568,054	78,7
568,248	-20,35
568,443	98,33
568,638	106,74
568,832	78,1
569,027	93,02
569,222	37,54
569,416	47,85
569,611	-31,86
569,805	104,64
570	79,4
570,195	63,78
570,389	34,43
570,584	49,15
570,778	69,98
570,973	120,46
571,167	31,53
571,362	143,49
571,556	78,1
571,751	30,33
571,945	-25,75
572,139	59,67
572,334	43,05
572,528	29,83
572,723	42,34
572,917	1,99
573,111	64,68
573,306	56,87
573,5	28,83
573,694	93,42
573,889	69,88
574,083	66,08
574,277	46,35
574,472	110,54
574,666	82,8
574,86	121,36
575,054	143,09
575,249	36,54
575,443	65,88
575,637	115,05
575,831	82
576,025	135,08
576,219	72,69
576,414	82,6
576,608	64,98
576,802	1,89
576,996	102,43
577,19	78,9
577,384	113,25
577,578	-1,12
577,772	34,93
577,966	177,04
578,16	103,83
578,354	36,64
578,548	26,52
578,742	53,66
578,936	61,47
579,13	12,5
579,324	104,03
579,518	11,5
579,712	81,4
579,906	-0,72
580,1	77,5
580,294	15,71
580,488	-27,46
580,682	38,94
580,875	91,82
581,069	-24,65
581,263	5,09
581,457	121,96
581,651	76,69
581,845	59,17
582,038	126,07
582,232	53,56
582,426	49,96
582,62	37,34
582,813	-18,04
583,007	4,59
583,201	73,39
583,394	57,77
583,588	77,7
583,782	39,24
583,975	114,85
584,169	62,07
584,363	97,83
584,556	96,32
584,75	6,59
584,943	65,58
585,137	50,86
585,33	33,73
585,524	83,5
585,718	85,91
585,911	85,01
586,105	26,92
586,298	83,5
586,491	-2,22
586,685	2,49
586,878	74,79
587,072	60,17
587,265	94,72
587,459	92,72
587,652	77,4
587,845	88,21
588,039	68,88
588,232	86,61
588,426	14,2
588,619	18,81
588,812	12,9
589,005	101,23
589,199	116,55
589,392	21,01
589,585	58,57
589,779	51,46
589,972	111,65
590,165	101,03
590,358	-15,74
590,551	103,13
590,745	38,94
590,938	81,9
591,131	21,92
591,324	33,83
591,517	-9,23
591,71	56,67
591,904	-9,73
592,097	50,66
592,29	74,79
592,483	80,1
592,676	-61,91
592,869	74,79
593,062	103,13
593,255	32,33
593,448	-42,08
593,641	124,76
593,834	90,92
594,027	-43,88
594,22	84,31
594,413	41,74
594,606	30,63
594,799	105,94
594,992	-1,82
595,184	43,15
595,377	92,42
595,57	35,13
595,763	6,39
595,956	50,16
596,149	110,34
596,341	68,58
596,534	-13,54
596,727	99,83
596,92	-3,12
597,113	-42,08
597,305	80,1
597,498	89,21
597,691	58,07
597,883	108,34
598,076	17,91
598,269	66,68
598,462	80,4
598,654	47,45
598,847	24,42
599,039	66,98
599,232	94,72
599,425	63,98
599,617	51,86
599,81	57,17
600,002	60,17
600,195	-15,64
600,387	87,61
600,58	34,73
600,772	95,72
600,965	-32,16
601,157	-4,52
601,35	10,6
601,542	60,57
601,735	2,19
601,927	111,95
602,12	-31,36
602,312	64,58
602,504	-34,87
602,697	53,36
602,889	66,58
603,082	53,86
603,274	87,51
603,466	90,61
603,659	41,84
603,851	60,07
604,043	1,69
604,235	15,21
604,428	98,43
604,62	49,56
604,812	117,45
605,004	54,36
605,197	-27,16
605,389	74,39
605,581	-4,12
605,773	50,86
605,965	94,32
606,157	5,29
606,349	-13,34
606,542	44,35
606,734	53,96
606,926	104,23
607,118	38,14
607,31	88,31
607,502	47,75
607,694	75,69
607,886	47,85
608,078	9,8
608,27	35,74
608,462	43,25
608,654	-19,34
608,846	40,74
609,038	-31,56
609,23	132,28
609,422	53,26
609,614	-50,79
609,805	7,49
609,997	110,34
610,189	-72,92
610,381	67,58
610,573	5,79
610,765	-0,02
610,957	20,31
611,148	37,64
611,34	41,04
611,532	29,43
611,724	106,04
611,915	59,67
612,107	82,1
612,299	41,54
612,491	80,2
612,682	118,66
612,874	-24,05
613,066	18,51
613,257	-8,53
613,449	25,42
613,64	41,04
613,832	24,42
614,024	-21,85
614,215	114,55
614,407	47,15
614,598	9,8
614,79	85,41
614,981	27,32
615,173	35,13
615,364	-43,38
615,556	-22,75
615,747	79
615,939	-6,93
616,13	4,19
616,322	134,38
616,513	38,14
616,705	4,39
616,896	102,73
617,087	129,67
617,279	-4,22
617,47	-4,12
617,661	72,09
617,853	42,55
618,044	-41,48
618,235	2,89
618,427	65,58
618,618	-16,24
618,809	23,62
619	61,37
619,192	67,38
619,383	2,19
619,574	47,45
619,765	-15,44
619,957	76,99
620,148	70,59
620,339	7,79
620,53	0,18
620,721	-29,46
620,912	-4,62
621,103	86,81
621,294	55,86
621,485	54,76
621,677	71,29
621,868	63,38
622,059	-7,43
622,25	78,4
622,441	-54,3
622,632	81
622,823	10,3
623,014	23,52
623,205	76,69
623,395	36,34
623,586	47,65
623,777	95,02
623,968	-1,92
624,159	31,63
624,35	37,94
624,541	83
624,732	59,17
624,923	79,6
625,113	-4,62
625,304	21,21
625,495	47,65
625,686	-1,92
625,877	76,59
626,067	0,78
626,258	-2,22
626,449	4,39
626,639	26,02
626,83	71,89
627,021	55,66
627,211	6,59
627,402	114,35
627,593	-73,72
627,783	27,72
627,974	10,1
628,165	-7,13
628,355	-2,62
628,546	43,65
628,736	43,05
628,927	31,43
629,117	29,13
629,308	26,72
629,498	7,69
629,689	80,7
629,879	60,97
630,07	15,61
630,26	4,29
630,451	2,59
630,641	45,35
630,832	68,48
631,022	21,41
631,212	86,71
631,403	17,01
631,593	56,77
631,784	-34,07
631,974	101,43
632,164	62,97
632,355	23,72
632,545	4,19
632,735	45,85
632,925	-6,63
633,116	61,57
633,306	-59,7
633,496	40,44
633,686	53,06
633,876	71,99
634,067	21,01
634,257	34,93
634,447	17,11
634,637	-11,43
634,827	9,1
635,017	-88,34
635,208	66,98
635,398	51,96
635,588	31,33
635,778	-24,85
635,968	102,03
636,158	98,43
636,348	29,03
636,538	26,92
636,728	26,22
636,918	57,87
637,108	69,58
637,298	-35,27
637,488	35,03
637,678	27,32
637,868	20,71
638,057	77,4
638,247	32,63
638,437	33,83
638,627	127,27
638,817	9,8
639,007	-23,75
639,197	46,05
639,386	-24,05
639,576	51,16
639,766	-6,73
639,956	83,7
640,145	-4,62
640,335	46,45
640,525	40,34
640,715	92,52
640,904	31,33
641,094	7,69
641,284	-22,05
641,473	-3,12
641,663	38,84
641,853	-34,37
642,042	53,26
642,232	32,63
642,421	3,39
642,611	99,63
642,801	36,84
642,99	55,86
643,18	63,98
643,369	82,1
643,559	46,55
643,748	127,67
643,938	95,52
644,127	-5,72
644,317	-26,66
644,506	11,7
644,695	76,79
644,885	12,8
645,074	-44,88
645,264	29,03
645,453	23,12
645,642	11,6
645,832	-1,52
646,021	50,26
646,21	55,96
646,4	-47,39
646,589	38,14
646,778	88,11
646,967	-47,19
647,157	-49,29
647,346	65,58
647,535	-22,85
647,724	48,75
647,913	46,25
648,103	37,84
648,292	25,52
648,481	55,16
648,67	60,37
648,859	12,5
649,048	82,1
649,237	-52,49
649,427	104,64
649,616	55,56
649,805	97,62
649,994	18,51
650,183	14,2
650,372	50,26
650,561	16,81
650,75	74,89
650,939	52,16
651,128	20,31
651,317	-15,64
651,506	4,69
651,694	32,13
651,883	91,72
652,072	-30,16
652,261	30,83
652,45	20,21
652,639	40,94
652,828	-2,12
653,016	50,86
653,205	-28,46
653,394	20,41
653,583	-41,58
653,772	55,26
653,96	-35,87
654,149	-11,93
654,338	48,25
654,527	11,4
654,715	27,52
654,904	33,83
655,093	23,32
655,281	24,22
655,47	31,03
655,658	8,9
655,847	-32,56
656,036	39,54
656,224	33,93
656,413	21,41
656,601	-29,06
656,79	-12,94
656,978	46,25
657,167	39,44
657,355	28,12
657,544	-10,23
657,732	63,28
657,921	-2,22
658,109	-16,94
658,298	15,01
658,486	8,1
658,675	9,5
658,863	127,87
659,051	28,12
659,24	1,29
659,428	-52,89
659,616	-5,22
659,805	-11,03
659,993	-28,76
660,181	-28,96
660,37	47,35
660,558	-41,08
660,746	77,2
660,934	10,8
661,123	-11,63
661,311	-37,07
661,499	95,62
661,687	-9,53
661,875	46,15
662,064	-19,85
662,252	2,49
662,44	-10,03
662,628	-9,73
662,816	38,74
663,004	33,73
663,192	-32,96
663,38	27,32
663,568	66,98
663,756	-10,13
663,944	53,06
664,132	21,21
664,32	-2,72
664,508	32,73
664,696	-2,12
664,884	91,72
665,072	15,81
665,26	-3,42
665,448	84,71
665,636	-31,36
665,824	75,59
666,012	-6,73
666,199	-21,45
666,387	15,11
666,575	9,5
666,763	3,09
666,951	-9,43
667,139	38,34
667,326	35,94
667,514	-40,68
667,702	-6,73
667,889	56,67
668,077	11,8
668,265	-35,57
668,453	-8,53
668,64	-30,96
668,828	19,51
669,016	21,01
669,203	31,83
669,391	56,87
669,578	26,02
669,766	-3,42
669,954	6,09
670,141	19,11
670,329	-64,91
670,516	17,71
670,704	79,2
670,891	20,61
671,079	-17,54
671,266	93,02
671,454	47,05
671,641	29,73
671,828	34,13
672,016	-59,8
672,203	-3,42
672,391	30,23
672,578	-10,33
672,765	-74,62
672,953	8,8
673,14	44,65
673,327	13,9
673,515	15,21
673,702	10,2
673,889	-30,06
674,077	-63,61
674,264	38,54
674,451	-4,72
674,638	10,1
674,825	-61,71
675,013	31,63
675,2	39,14
675,387	-8,23
675,574	-45,38
675,761	36,14
675,948	56,87
676,136	66,18
676,323	3,79
676,51	3,69
676,697	98,13
676,884	-13,34
677,071	51,86
677,258	92,52
677,445	31,23
677,632	24,92
677,819	-17,84
678,006	41,24
678,193	-34,27
678,38	-28,76
678,567	67,08
678,754	73,59
678,94	29,03
679,127	29,53
679,314	18,81
679,501	-1,52
679,688	78,2
679,875	27,12
680,062	44,45
680,248	59,27
680,435	49,46
680,622	75,19
680,809	26,92
680,995	64,98
681,182	30,43
681,369	15,61
681,556	49,76
681,742	86,61
681,929	77,5
682,116	94,02
682,302	-55,1
682,489	62,07
682,675	-33,57
682,862	79,6
683,049	71,59
683,235	31,73
683,422	-53,89
683,608	60,27
683,795	-27,86
683,981	-45,68
684,168	-4,72
684,354	69,38
684,541	18,11
684,727	69,58
684,914	61,37
685,1	21,51
685,287	30,23
685,473	22,42
685,659	25,62
685,846	77,4
686,032	-27,76
686,218	19,61
686,405	8,6
686,591	24,42
686,777	44,55
686,964	47,75
687,15	125,06
687,336	20,01
687,522	59,17
687,709	-73,02
687,895	38,44
688,081	27,32
688,267	23,72
688,454	47,35
688,64	47,95
688,826	64,38
689,012	-39,07
689,198	3,29
689,384	45,15
689,57	-25,75
689,756	-3,02
689,942	11,2
690,128	29,83
690,314	36,34
690,501	-43,88
690,687	28,12
690,873	18,51
691,058	-10,53
691,244	-10,93
691,43	-66,51
691,616	60,97
691,802	-61,81
691,988	56,87
692,174	28,83
692,36	4,19
692,546	-20,65
692,732	55,66
692,917	65,18
693,103	31,73
693,289	59,47
693,475	-9,13
693,661	1,29
693,846	25,62
694,032	-68,62
694,218	-4,62
694,404	57,57
694,589	8,8
694,775	32,83
694,961	-13,84
695,146	-54,6
695,332	20,11
695,518	50,76
695,703	22,72
695,889	50,26
696,074	-10,03
696,26	-16,24
696,446	-59,9
696,631	90,81
696,817	79,6
697,002	42,55
697,188	11,6
697,373	27,12
697,559	25,22
697,744	18,31
697,93	77,8
698,115	-59,2
698,3	-31,16
698,486	7,29
698,671	57,47
698,857	-17,34
699,042	-99,86
699,227	106,14
699,413	-13,44
699,598	10,5
699,783	17,81
699,969	100,83
700,154	-3,32
700,339	1,59
700,524	-7,13
700,71	3,29
700,895	-42,08
701,08	94,52
701,265	-48,89
701,45	67,68
701,636	-6,63
701,821	-11,33
702,006	-5,22
702,191	-0,02
702,376	-57,8
702,561	-34,97
702,746	-19,85
702,931	101,13
703,116	67,28
703,301	2,99
703,486	-1,32
703,671	-21,35
703,856	-51,89
704,041	25,72
704,226	62,47
704,411	-56,8
704,596	-158,65
704,781	-24,85
704,966	34,63
705,151	37,54
705,336	4,19
705,521	12,1
705,706	84,01
705,89	-27,46
706,075	5,09
706,26	46,65
706,445	27,12
706,63	-33,57
706,814	45,25
706,999	11,5
707,184	-8,73
707,368	50,96
707,553	58,17
707,738	-3,82
707,923	83
708,107	17,01
708,292	10,6
708,476	54,76
708,661	18,11
708,846	39,04
709,03	41,84
709,215	34,53
709,399	-14,44
709,584	-46,18
709,768	38,04
709,953	33,63
710,137	38,34
710,322	-36,57
710,506	-11,63
710,691	-31,36
710,875	-0,32
711,06	35,13
711,244	47,65
711,429	9,6
711,613	-35,47
711,797	25,42
711,982	20,31
712,166	73,29
712,35	-27,76
712,535	87,01
712,719	128,97
712,903	27,82
713,088	-6,13
713,272	13,7
713,456	-23,25
713,64	-6,53
713,824	-37,77
714,009	98,43
714,193	-40,17
714,377	-34,17
714,561	2,79
714,745	69,18
714,929	100,73
715,113	18,31
715,298	-13,14
715,482	86,21
715,666	-27,26
715,85	23,92
716,034	-3,62
716,218	-2,62
716,402	-7,23
716,586	3,39
716,77	10,5
716,954	54,66
717,138	-6,03
717,322	-48,89
717,506	2,49
717,689	16,71
717,873	-15,04
718,057	7,59
718,241	19,61
718,425	8,2
718,609	25,72
718,793	30,43
718,976	42,34
719,16	58,67
719,344	54,16
719,528	78,7
719,711	6,59
719,895	88,71
720,079	103,03
720,263	67,58
720,446	-23,15
720,63	-75,93
720,814	-99,86
720,997	-5,02
721,181	6,19
721,364	28,72
721,548	3,09
721,732	-7,43
721,915	56,97
722,099	34,33
722,282	47,45
722,466	41,94
722,649	-79,73
722,833	3,29
723,016	4,49
723,2	18,91
723,383	-15,64
723,567	35,94
723,75	13,5
723,934	-14,44
724,117	6,29
724,3	-3,52
724,484	-5,12
724,667	-30,86
724,85	23,02
725,034	24,62
725,217	2,69
725,4	24,82
725,584	90,61
725,767	-50,19
725,95	57,47
726,133	-43,78
726,317	21,21
726,5	10,4
726,683	27,92
726,866	45,25
727,049	-8,03
727,232	12,8
727,416	-23,05
727,599	31,43
727,782	-61,21
727,965	-30,56
728,148	116,25
728,331	92,42
728,514	33,23
728,697	-8,23
728,88	-43,48
729,063	29,53
729,246	-53,79
729,429	14,9
729,612	-14,94
729,795	48,95
729,978	61,17
730,161	85,51
730,344	4,99
730,526	31,63
730,709	46,75
730,892	62,97
731,075	-7,13
731,258	38,44
731,441	71,59
731,623	9,6
731,806	5,69
731,989	29,43
732,172	-79,53
732,354	34,63
732,537	122,26
732,72	-59,9
732,903	44,55
733,085	17,41
733,268	76,69
733,451	12,3
733,633	67,98
733,816	70,79
733,998	-17,14
734,181	-85,64
734,364	3,09
734,546	30,23
734,729	13,5
734,911	-5,72
735,094	-9,03
735,276	44,25
735,459	19,91
735,641	-40,88
735,824	-45,98
736,006	10,1
736,188	45,05
736,371	6,49
736,553	39,74
736,736	19,61
736,918	-21,65
737,1	8,7
737,283	-51,59
737,465	8,2
737,647	-16,84
737,83	-55,3
738,012	41,14
738,194	52,16
738,376	-39,07
738,559	-35,77
738,741	3,09
738,923	20,91
739,105	4,89
739,287	7,89
739,469	53,06
739,652	19,01
739,834	24,12
740,016	65,68
740,198	44,65
740,38	-3,82
740,562	-22,35
740,744	80,2
740,926	-11,23
741,108	19,01
741,29	21,01
741,472	-12,63
741,654	21,61
741,836	42,85
742,018	39,44
742,2	93,22
742,382	-5,22
742,564	59,37
742,746	23,22
742,928	41,04
743,109	-13,64
743,291	-49,69
743,473	-42,28
743,655	-42,98
743,837	-19,44
744,019	27,42
744,2	25,92
744,382	9,8
744,564	-58
744,746	-45,38
744,927	26,92
745,109	-16,64
745,291	-6,93
745,472	-4,52
745,654	36,34
745,836	16,61
746,017	9,4
746,199	43,55
746,38	21,81
746,562	-83,64
746,744	26,52
746,925	8,3
747,107	40,64
747,288	15,51
747,47	-22,15
747,651	-66,21
747,833	-69,52
748,014	21,71
748,195	81,1
748,377	47,25
748,558	24,82
748,74	19,21
748,921	58,77
749,102	54,36
749,284	-29,86
749,465	106,94
749,646	22,82
749,828	-6,93
750,009	25,62
750,19	31,53
750,372	99,73
750,553	39,04
750,734	30,53
750,915	-68,12
751,096	60,57
751,278	32,43
751,459	100,53
751,64	7,99
751,821	52,96
752,002	-24,35
752,183	0,88
752,364	-3,92
752,546	22,22
752,727	3,19
752,908	44,25
753,089	1,49
753,27	68,38
753,451	3,99
753,632	-3,02
753,813	-29,46
753,994	-0,62
754,175	16,91
754,356	32,23
754,536	39,24
754,717	-50,09
754,898	61,37
755,079	70,49
755,26	36,64
755,441	39,04
755,622	12,8
755,802	69,28
755,983	-31,46
756,164	6,39
756,345	34,33
756,526	14,4
756,706	49,46
756,887	35,94
757,068	82,8
757,248	26,42
757,429	31,23
757,61	-1,52
757,79	44,75
757,971	20,31
758,152	-9,63
758,332	-75,03
758,513	31,73
758,693	1,89
758,874	58,67
759,055	36,74
759,235	16,31
759,416	-33,16
759,596	13,6
759,777	75,49
759,957	-47,19
760,137	69,38
760,318	15,11
760,498	68,48
760,679	41,54
760,859	-15,74
761,039	65,88
761,22	61,37
761,4	28,52
761,581	96,92
761,761	-19,24
761,941	117,75
762,121	-4,12
762,302	-41,68
762,482	69,88
762,662	-15,54
762,842	11,6
763,023	27,82
763,203	-62,91
763,383	23,12
763,563	32,43
763,743	18,21
763,923	19,11
764,104	50,26
764,284	-11,83
764,464	-20,75
764,644	-13,04
764,824	21,41
765,004	-29,06
765,184	-1,92
765,364	-29,76
765,544	-26,66
765,724	-10,03
765,904	23,02
766,084	-3,62
766,264	20,81
766,444	32,33
766,624	-16,64
766,804	-41,38
766,983	41,64
767,163	65,68
767,343	-6,43
767,523	68,28
767,703	73,59
767,883	54,56
768,062	-31,66
768,242	-15,44
768,422	-11,63
768,602	22,42
768,781	-50,19
768,961	-31,16
769,141	-10,33
769,32	16,61
769,5	15,01
769,68	-19,14
769,859	-14,64
770,039	47,55
770,219	22,12
770,398	-52,49
770,578	22,32
770,757	0,38
770,937	6,99
771,116	-30,16
771,296	-0,92
771,475	-19,04
771,655	-55,4
771,834	8,5
772,014	-0,32
772,193	115,85
772,373	13,6
772,552	-31,66
772,731	-24,65
772,911	-19,24
773,09	25,42
773,269	20,51
773,449	36,34
773,628	45,05
773,807	-16,84
773,987	-8,13
774,166	-31,56
774,345	38,34
774,524	-42,78
774,704	-19,95
774,883	-26,25
775,062	-15,84
775,241	74,49
775,42	32,33
775,6	44,85
775,779	-39,47
775,958	18,21
776,137	61,47
776,316	28,93
776,495	43,85
776,674	-79,73
776,853	-9,13
777,032	10,8
777,211	27,82
777,39	-48,89
777,569	6,59
777,748	33,13
777,927	-15,94
778,106	7,29
778,285	9
778,464	-12,74
778,643	42,75
778,822	-18,14
779	56,67
779,179	3,29
779,358	37,54
779,537	-10,93
779,716	-31,16
779,894	-13,14
780,073	9,8
780,252	-44,68
780,431	-31,16
780,609	-44,58
780,788	33,23
780,967	-74,22
781,145	65,08
781,324	-7,43
781,503	-44,48
781,681	-20,95
781,86	10
782,039	21,81
782,217	-25,35
782,396	-18,44
782,574	-26,66
782,753	71,19
782,931	39,94
783,11	23,32
783,288	-45,78
783,467	51,16
783,645	-95,15
783,824	64,58
784,002	-90,25
784,18	-22,55
784,359	8,2
784,537	-39,27
784,716	29,83
784,894	36,24
785,072	-72,22
785,251	25,02
785,429	-8,03
785,607	12,1
785,785	-4,42
785,964	34,63
786,142	-157,14
786,32	40,54
786,498	-37,97
786,677	52,06
786,855	-4,82
787,033	11,6
787,211	-56,2
787,389	38,34
787,567	29,23
787,745	17,91
787,923	54,56
788,102	32,33
788,28	34,93
788,458	-27,76
788,636	-8,23
788,814	1,89
788,992	33,43
789,17	26,22
789,348	53,46
789,526	49,15
789,703	-40,58
789,881	5,79
790,059	-22,05
790,237	16,31
790,415	-13,34
790,593	14,9
790,771	39,84
790,949	13,1
791,126	54,46
791,304	-25,65
791,482	-27,46
791,66	-24,05
791,837	26,42
792,015	25,62
792,193	-4,92
792,371	78,8
792,548	61,17
792,726	41,24
792,904	-34,37
793,081	-29,06
793,259	-74,93
793,436	56,37
793,614	17,11
793,792	0,68
793,969	88,81
794,147	31,63
794,324	89,51
794,502	45,15
794,679	-60,8
794,857	43,25
795,034	47,45
795,212	-33,87
795,389	35,53
795,567	59,67
795,744	58,37
795,921	-27,26
796,099	-19,65
796,276	-8,03
796,453	40,04
796,631	-21,85
796,808	-32,36
796,985	-7,83
797,163	75,89
797,34	-24,15
797,517	24,12
797,694	-10,43
797,872	-15,94
798,049	-10,13
798,226	52,26
798,403	28,83
798,58	80,9
798,757	-23,45
798,935	43,85
799,112	-50,49
799,289	-38,97
799,466	-14,74
799,643	86,51
799,82	36,34
799,997	54,06
800,174	46,75
800,351	-45,28
800,528	72,09
800,705	15,61
800,882	-2,62
801,059	9,2
801,236	29,03
801,413	-17,94
801,589	-3,92
801,766	-6,63
801,943	20,91
802,12	60,77
802,297	50,76
802,474	2,89
802,651	9,2
802,827	18,21
803,004	35,13
803,181	45,65
803,358	74,29
803,534	-16,04
803,711	-46,18
803,888	-29,36
804,064	-8,13
804,241	-62,51
804,418	-42,08
804,594	3,99
804,771	-81,53
804,947	114,45
805,124	-65,81
805,301	65,18
805,477	47,65
805,654	27,82
805,83	-33,57
806,007	10,6
806,183	39,84
806,36	22,92
806,536	-53,69
806,712	-46,38
806,889	-17,54
807,065	-21,15
807,242	-10,83
807,418	15,51
807,594	32,93
807,771	26,02
807,947	-63,61
808,123	46,25
808,3	4,59
808,476	-1,22
808,652	-16,24
808,829	8,3
809,005	56,37
809,181	-1,72
809,357	28,52
809,533	-20,05
809,71	30,83
809,886	27,42
810,062	99,53
810,238	-25,65
810,414	54,96
810,59	-15,74
810,766	-7,13
810,942	16,71
811,118	0,08
811,294	-6,83
811,47	-18,64
811,646	93,32
811,822	-4,52
811,998	61,27
812,174	-49,69
812,35	6,19
812,526	-16,44
812,702	-35,17
812,878	-1,42
813,054	8,7
813,23	-100,16
813,405	37,64
813,581	-1,82
813,757	18,71
813,933	81,5
814,109	-43,38
814,284	106,04
814,46	-11,63
814,636	-30,46
814,812	-36,97
814,987	-26,25
815,163	34,43
815,339	-8,73
815,514	-33,16
815,69	-11,23
815,866	-1,52
816,041	10,6
816,217	53,76
816,392	22,72
816,568	40,54
816,743	36,44
816,919	9,9
817,094	19,51
817,27	-20,45
817,445	41,14
817,621	-18,74
817,796	52,26
817,972	-25,55
818,147	-65,41
818,322	-12,74
818,498	84,41
818,673	-13,54
818,849	-37,87
819,024	-75,93
819,199	23,92
819,375	20,11
819,55	40,34
819,725	35,23
819,9	-7,93
820,076	47,05
820,251	-21,45
820,426	88,21
820,601	60,27
820,776	8,4
820,952	22,52
821,127	26,92
821,302	63,58
821,477	-31,56
821,652	24,12
821,827	-5,83
822,002	-6,73
822,177	-20,75
822,352	-0,22
822,527	7,59
822,702	-35,57
822,877	3,89
823,052	-10,23
823,227	4,59
823,402	0,58
823,577	49,96
823,752	22,12
823,927	-30,36
824,102	104,03
824,277	70,29
824,451	-2,52
824,626	-31,46
824,801	-8,83
824,976	105,54
825,151	-12,33
825,325	54,26
825,5	14,7
825,675	58,57
825,85	72,69
826,024	74,99
826,199	30,33
826,374	-28,46
826,548	26,22
826,723	51,56
826,897	26,82
827,072	-32,16
827,247	37,84
827,421	-23,55
827,596	8,3
827,77	-1,92
827,945	53,46
828,119	-7,83
828,294	64,98
828,468	-14,54
828,643	2,19
828,817	13,2
828,992	-15,54
829,166	-41,68
829,34	70,79
829,515	38,74
829,689	49,96
829,864	5,79
830,038	45,35
830,212	66,88
830,386	-26,96
830,561	58,67
830,735	-29,26
830,909	31,23
831,084	-23,15
831,258	49,35
831,432	14,5
831,606	15,11
831,78	32,33
831,954	83,8
832,129	48,75
832,303	6,49
832,477	-5,52
832,651	57,27
832,825	-60,9
832,999	80,1
833,173	-38,97
833,347	-31,26
833,521	7,49
833,695	54,26
833,869	14,8
834,043	-1,92
834,217	-25,55
834,391	-11,63
834,565	-2,22
834,739	18,31
834,913	-20,65
835,086	-10,73
835,26	-40,38
835,434	-18,04
835,608	20,31
835,782	19,91
835,956	-19,44
836,129	-21,35
836,303	71,99
836,477	4,29
836,651	-2,32
836,824	28,72
836,998	-20,95
837,172	5,99
837,345	82,5
837,519	-17,24
837,693	9
837,866	4,09
838,04	-54,2
838,213	-49,89
838,387	2,99
838,56	-26,86
838,734	13,6
838,907	53,76
839,081	31,33
839,254	11,3
839,428	-50,09
839,601	35,13
839,775	-93,95
839,948	18,71
840,122	43,25
840,295	11,2
840,468	-48,69
840,642	26,52
840,815	-28,26
840,988	-60,4
841,162	-11,63
841,335	20,31
841,508	37,04
841,682	-27,86
841,855	27,82
842,028	39,24
842,201	-0,52
842,374	-11,13
842,548	43,35
842,721	23,92
842,894	-12,63
843,067	-100,86
843,24	-77,43
843,413	-28,26
843,586	32,63
843,759	-18,54
843,932	33,63
844,105	-63,61
844,278	-1,12
844,451	10,4
844,624	20,71
844,797	-3,72
844,97	14,1
845,143	6,19
845,316	57,87
845,489	-52,79
845,662	-19,85
845,835	62,37
846,008	-49,39
846,18	-28,46
846,353	71,49
846,526	52,16
846,699	28,93
846,872	53,56
847,044	22,82
847,217	-43,28
847,39	-2,92
847,563	39,84
847,735	12,4
847,908	42,55
848,081	-37,87
848,253	-38,37
848,426	-39,77
848,598	60,37
848,771	36,14
848,944	-70,52
849,116	-62,91
849,289	-28,86
849,461	-13,74
849,634	-4,02
849,806	-14,24
849,979	-12,74
850,151	65,18
850,324	106,94
850,496	9,8
850,668	-54,6
850,841	-24,95
851,013	49,25
851,186	-35,27
851,358	-13,44
851,53	19,91
851,703	10,4
851,875	-27,16
852,047	-11,43
852,219	-95,66
852,392	32,63
852,564	21,51
852,736	-81,74
852,908	-39,57
853,081	54,26
853,253	12,5
853,425	21,92
853,597	48,45
853,769	-19,24
853,941	19,91
854,113	-18,34
854,285	39,84
854,457	34,23
854,63	-26,96
854,802	43,35
854,974	3,99
855,146	22,52
855,318	73,19
855,489	-14,24
855,661	75,79
855,833	3,89
856,005	28,83
856,177	-85,64
856,349	-8,03
856,521	-4,42
856,693	-92,45
856,865	-53,09
857,036	123,56
857,208	40,34
857,38	-40,58
857,552	-19,44
857,723	11,2
857,895	-17,84
858,067	-47,39
858,239	16,41
858,41	-95,05
858,582	28,62
858,754	-10,03
858,925	-128,6
859,097	16,21
859,268	42,24
859,44	-39,87
859,612	-43,58
859,783	-97,46
859,955	-38,87
860,126	-44,98
860,298	-6,43
860,469	40,14
860,641	-29,96
860,812	-48,79
860,983	-35,17
861,155	-11,93
861,326	-8,33
861,498	8,7
861,669	-12,84
861,84	60,77
862,012	31,43
862,183	20,61
862,354	75,79
862,526	-16,14
862,697	14,9
862,868	-36,17
863,039	12
863,211	-97,56
863,382	-9,23
863,553	-29,86
863,724	-53,29
863,895	2,89
864,066	90,61
864,238	-4,12
864,409	54,76
864,58	-78,43
864,751	50,06
864,922	-39,17
865,093	18,71
865,264	45,85
865,435	-33,47
865,606	12,7
865,777	-14,94
865,948	-11,03
866,119	34,33
866,29	59,17
866,461	-7,33
866,632	-83,74
866,802	-26,05
866,973	-7,73
867,144	-48,29
867,315	1,19
867,486	-3,82
867,657	-4,22
867,827	33,23
867,998	44,15
868,169	-42,18
868,34	61,77
868,51	-25,75
868,681	41,94
868,852	-21,75
869,022	50,66
869,193	73,19
869,364	-4,32
869,534	-26,56
869,705	5,09
869,875	-15,04
870,046	-5,02
870,217	-3,02
870,387	11,7
870,558	66,28
870,728	1,19
870,899	-20,95
871,069	-13,04
871,239	60,67
871,41	-5,72
871,58	51,26
871,751	7,59
871,921	-10,43
872,091	-49,29
872,262	7,79
872,432	66,88
872,602	-126,4
872,773	19,01
872,943	-5,62
873,113	27,02
873,284	-45,98
873,454	0,08
873,624	5,79
873,794	-21,15
873,964	30,53
874,135	-7,83
874,305	-2,42
874,475	8,4
874,645	-70,22
874,815	-4,12
874,985	-2,22
875,155	-14,14
875,325	-48,19
875,495	-7,53
875,665	-20,95
875,835	-21,05
876,005	-25,15
876,175	-5,42
876,345	2,09
876,515	-22,35
876,685	62,17
876,855	57,17
877,025	-27,26
877,195	-70,42
877,365	-32,66
877,534	13
877,704	-5,93
877,874	81,3
878,044	-37,37
878,214	34,93
878,383	5,79
878,553	40,44
878,723	-18,44
878,892	38,84
879,062	29,33
879,232	12,8
879,401	-21,85
879,571	15,61
879,741	-124,5
879,91	-47,19
880,08	20,61
880,249	-7,83
880,419	17,31
880,589	-10,83
880,758	-15,44
880,928	40,04
881,097	-44,88
881,267	-1,12
881,436	-26,86
881,605	48,85
881,775	-116,49
881,944	-5,12
882,114	50,06
882,283	-11,73
882,452	33,53
882,622	-28,26
882,791	-74,42
882,96	-43,28
883,13	34,53
883,299	4,09
883,468	-14,14
883,637	-38,07
883,807	41,44
883,976	-33,57
884,145	-0,12
884,314	9,3
884,483	-37,57
884,652	7,59
884,822	-29,46
884,991	-26,76
885,16	-8,63
885,329	-5,22
885,498	-13,24
885,667	22,52
885,836	-0,72
886,005	-36,07
886,174	28,12
886,343	29,13
886,512	3,89
886,681	7,39
886,85	71,29
887,019	35,84
887,187	5,29
887,356	38,44
887,525	-51,59
887,694	-17,14
887,863	-5,12
888,032	-15,04
888,2	-16,84
888,369	-41,28
888,538	17,21
888,707	-24,55
888,875	-57,8
889,044	-34,27
889,213	86,61
889,381	-19,54
889,55	-21,95
889,719	15,41
889,887	56,67
890,056	-80,83
890,224	58,67
890,393	-20,75
890,562	66,98
890,73	-5,02
890,899	33,23
891,067	25,02
891,236	-10,83
891,404	57,07
891,573	-42,08
891,741	-69,02
891,909	-17,44
892,078	51,16
892,246	-4,12
892,415	-8,83
892,583	14,1
892,751	8,2
892,92	12,5
893,088	-16,64
893,256	40,24
893,424	-31,56
893,593	28,52
893,761	-40,98
893,929	-56,6
894,097	26,22
894,265	-19,34
894,434	12
894,602	36,64
894,77	-1,12
894,938	17,81
895,106	38,94
895,274	46,25
895,442	-1,32
895,61	61,47
895,778	-30,66
895,946	4,49
896,114	12,1
896,282	-66,21
896,45	33,03
896,618	37,54
896,786	30,93
896,954	9
897,122	4,09
897,29	-17,34
897,458	-10,03
897,625	14,9
897,793	53,16
897,961	59,07
898,129	-39,67
898,297	45,95
898,464	5,89
898,632	1,79
898,8	48,15
898,968	-36,17
899,135	30,83
899,303	-1,62
899,471	-55,2
899,638	26,02
899,806	-14,24
899,973	22,92
900,141	69,08
900,309	-11,63
900,476	9,3
900,644	73,79
900,811	-8,33
900,979	55,26
901,146	4,89
901,314	11,6
901,481	-13,94
901,649	27,42
901,816	-7,53
901,983	27,52
902,151	-21,75
