Data from Subt4__26__15-05-31-553.txt Node

Date: Thu Feb 19 15:05:31 CET 2026
User: Versuch 234
Spectrometer: USB4F05580
Trigger mode: 4
Integration Time (sec): 4,000000E-2
Scans to average: 20
Electric dark correction enabled: true
Nonlinearity correction enabled: false
Boxcar width: 0
XAxis mode: Wavelengths
Number of Pixels in Spectrum: 3648
>>>>>Begin Spectral Data<<<<<
197,409	49,8
197,623	49,8
197,837	49,8
198,051	114,69
198,265	66,42
198,479	-51,95
198,693	-6,99
198,907	-34,42
199,122	-2,08
199,336	-5,38
199,55	15,45
199,763	30,77
199,977	12,64
200,191	50,9
200,405	8,14
200,619	7,74
200,833	-24,81
201,047	2,53
201,261	70,83
201,475	61,11
201,689	71,73
201,903	46,09
202,117	13,95
202,331	-3,38
202,545	23,96
202,758	63,12
202,972	2,73
203,186	-62,37
203,4	79,44
203,614	54,7
203,828	9,84
204,041	61,61
204,255	40,98
204,469	30,67
204,683	70,73
204,897	30,97
205,11	52,8
205,324	43,69
205,538	42,79
205,752	18,75
205,965	87,05
206,179	81,94
206,393	-64,27
206,606	48,7
206,82	35,08
207,034	41,59
207,248	19,95
207,461	22,26
207,675	29,67
207,889	60,01
208,102	74,03
208,316	-2,58
208,529	9,94
208,743	36,08
208,957	60,31
209,17	-22,51
209,384	79,44
209,597	8,84
209,811	68,02
210,025	85,05
210,238	51,1
210,452	22,46
210,665	72,73
210,879	56,41
211,092	14,65
211,306	25,96
211,519	-3,98
211,733	55,51
211,946	97,47
212,16	86,35
212,373	24,66
212,587	17,45
212,8	18,15
213,014	5,53
213,227	63,42
213,44	21,66
213,654	101,47
213,867	103,68
214,081	75,63
214,294	11,94
214,507	80,04
214,721	68,22
214,934	63,82
215,148	43,79
215,361	133,72
215,574	77,64
215,788	-43,44
216,001	120,9
216,214	16,55
216,428	50,6
216,641	19,65
216,854	66,52
217,067	30,97
217,281	75,53
217,494	75,23
217,707	65,02
217,92	-7,09
218,134	45,09
218,347	116,59
218,56	86,85
218,773	-1,08
218,986	110,59
219,2	51,7
219,413	18,95
219,626	24,06
219,839	89,25
220,052	60,31
220,265	12,74
220,479	73,73
220,692	77,14
220,905	32,27
221,118	76,64
221,331	-6,28
221,544	52,3
221,757	65,92
221,97	85,65
222,183	-19,8
222,396	52,8
222,609	51,9
222,822	-35,23
223,035	60,41
223,249	30,47
223,462	53,6
223,675	-18,4
223,887	65,72
224,1	83,05
224,313	69,73
224,526	79,04
224,739	30,17
224,952	79,84
225,165	42,19
225,378	51,6
225,591	113,49
225,804	44,49
226,017	80,54
226,23	59,61
226,443	25,66
226,656	21,26
226,868	-9,59
227,081	103,78
227,294	4,73
227,507	54,2
227,72	40,28
227,933	88,15
228,145	60,91
228,358	21,96
228,571	46,59
228,784	1,93
228,997	-16,3
229,209	65,42
229,422	54,9
229,635	66,72
229,848	40,78
230,06	-20,71
230,273	-18,3
230,486	66,22
230,698	-13,59
230,911	14,05
231,124	36,28
231,336	24,86
231,549	74,03
231,762	83,85
231,974	-24,31
232,187	-17
232,4	95,16
232,612	6,43
232,825	46,89
233,038	54,4
233,25	89,15
233,463	53,1
233,675	23,56
233,888	69,13
234,1	127,11
234,313	71,43
234,526	70,53
234,738	26,66
234,951	9,74
235,163	6,83
235,376	65,42
235,588	-31,82
235,801	30,47
236,013	-19,8
236,226	76,64
236,438	50,7
236,65	93,36
236,863	21,86
237,075	110,99
237,288	28,47
237,5	-6,58
237,713	12,34
237,925	1,53
238,137	26,36
238,35	76,34
238,562	37,48
238,774	113,69
238,987	136,62
239,199	57,91
239,411	41,89
239,624	52
239,836	80,84
240,048	19,95
240,261	93,26
240,473	47,89
240,685	57,01
240,897	-23,01
241,11	33,37
241,322	75,73
241,534	57,51
241,746	61,71
241,959	99,57
242,171	41,08
242,383	37,28
242,595	5,83
242,807	42,89
243,02	67,02
243,232	48,19
243,444	7,14
243,656	79,94
243,868	72,13
244,08	-9,49
244,293	-20,6
244,505	55,1
244,717	45,39
244,929	1,33
245,141	27,16
245,353	34,88
245,565	64,42
245,777	46,29
245,989	42,39
246,201	-4,68
246,413	89,65
246,625	34,58
246,837	34,37
247,049	66,22
247,261	114,59
247,473	55,41
247,685	79,44
247,897	64,82
248,109	5,63
248,321	86,45
248,533	-46,14
248,745	33,47
248,957	64,02
249,169	6,94
249,381	95,46
249,593	33,07
249,804	98,07
250,016	68,72
250,228	13,95
250,44	85,75
250,652	40,58
250,864	77,14
251,075	20,96
251,287	45,59
251,499	91,26
251,711	56,41
251,923	52,6
252,134	62,12
252,346	20,05
252,558	95,76
252,77	44,59
252,982	50,7
253,193	46,29
253,405	42,29
253,617	80,54
253,828	8,74
254,04	105,38
254,252	144,63
254,463	78,24
254,675	28,97
254,887	-20,5
255,098	31,77
255,31	13,74
255,522	100,77
255,733	36,18
255,945	107,08
256,157	46,59
256,368	26,46
256,58	76,74
256,791	49,8
257,003	95,06
257,214	78,64
257,426	80,04
257,637	32,37
257,849	40,58
258,061	97,47
258,272	74,13
258,484	64,72
258,695	57,81
258,907	54,3
259,118	84,15
259,329	1,93
259,541	60,71
259,752	65,72
259,964	121
260,175	26,16
260,387	-42,54
260,598	48,5
260,809	46,19
261,021	47,69
261,232	42,09
261,444	50,3
261,655	84,85
261,866	47,29
262,078	47,89
262,289	52,7
262,5	24,96
262,712	23,26
262,923	45,19
263,134	4,33
263,345	93,86
263,557	-27,82
263,768	1,03
263,979	12,94
264,191	22,06
264,402	-7,19
264,613	76,54
264,824	39,78
265,035	8,44
265,247	90,16
265,458	11,04
265,669	17,45
265,88	53,3
266,091	40,88
266,302	67,42
266,514	21,56
266,725	31,77
266,936	61,71
267,147	5,23
267,358	34,37
267,569	88,15
267,78	85,65
267,991	33,97
268,202	119,2
268,414	60,91
268,625	102,57
268,836	-10,09
269,047	127,61
269,258	7,14
269,469	2,23
269,68	63,82
269,891	25,16
270,102	102,67
270,313	27,36
270,524	44,89
270,735	45,39
270,945	61,01
271,156	111,39
271,367	99,17
271,578	90,06
271,789	6,94
272	101,57
272,211	69,03
272,422	20,05
272,633	92,26
272,844	14,65
273,054	6,33
273,265	39,38
273,476	33,17
273,687	1,83
273,898	40,08
274,109	44,49
274,319	41,69
274,53	134,72
274,741	99,17
274,952	41,28
275,162	99,97
275,373	66,02
275,584	46,19
275,795	17,45
276,005	34,68
276,216	31,17
276,427	59,21
276,637	39,18
276,848	35,98
277,059	-5,88
277,269	27,97
277,48	48,09
277,691	57,21
277,901	27,46
278,112	38,58
278,323	32,47
278,533	60,31
278,744	57,31
278,954	34,78
279,165	71,13
279,376	57,21
279,586	-0,38
279,797	51,2
280,007	13,44
280,218	78,04
280,428	88,65
280,639	105,68
280,849	56,01
281,06	45,89
281,27	0,63
281,481	34,27
281,691	74,13
281,902	31,47
282,112	49,4
282,322	138,33
282,533	35,28
282,743	93,26
282,954	59,01
283,164	19,75
283,374	89,45
283,585	107,58
283,795	12,64
284,006	48,8
284,216	50,8
284,426	56,41
284,637	15,65
284,847	14,85
285,057	87,55
285,268	90,76
285,478	49,8
285,688	92,66
285,898	23,06
286,109	62,72
286,319	16,35
286,529	89,35
286,739	44,19
286,95	88,15
287,16	64,02
287,37	115,39
287,58	35,98
287,79	87,75
288,001	84,95
288,211	76,04
288,421	72,93
288,631	69,53
288,841	46,69
289,051	49,3
289,261	65,22
289,471	6,33
289,682	41,99
289,892	55,61
290,102	42,49
290,312	-0,18
290,522	49,7
290,732	105,18
290,942	81,24
291,152	76,04
291,362	92,56
291,572	2,83
291,782	55,41
291,992	122,7
292,202	56,61
292,412	12,84
292,622	50,9
292,832	88,15
293,042	50,8
293,252	41,89
293,462	88,05
293,672	27,36
293,881	69,63
294,091	47,99
294,301	42,09
294,511	78,44
294,721	138,93
294,931	142,33
295,141	39,38
295,35	98,57
295,56	44,99
295,77	59,01
295,98	-6,08
296,19	96,26
296,4	76,04
296,609	16,15
296,819	87,85
297,029	94,06
297,239	60,41
297,448	93,66
297,658	33,87
297,868	89,25
298,077	42,79
298,287	56,11
298,497	57,81
298,706	60,11
298,916	7,64
299,126	85,05
299,335	91,46
299,545	62,92
299,755	38,48
299,964	80,64
300,174	150,54
300,384	121,3
300,593	92,86
300,803	39,78
301,012	76,24
301,222	82,64
301,431	18,85
301,641	70,53
301,851	67,22
302,06	121,9
302,27	59,71
302,479	79,84
302,689	76,04
302,898	15,75
303,107	76,34
303,317	88,55
303,526	139,43
303,736	131,01
303,945	87,85
304,155	37,78
304,364	118,5
304,574	66,12
304,783	30,77
304,992	74,13
305,202	62,72
305,411	69,73
305,62	93,16
305,83	115,99
306,039	86,05
306,248	88,55
306,458	27,56
306,667	2,53
306,876	67,42
307,086	62,82
307,295	58,71
307,504	61,41
307,713	71,83
307,923	-23,41
308,132	83,95
308,341	17,55
308,55	54,9
308,76	32,87
308,969	77,84
309,178	89,25
309,387	90,66
309,596	18,05
309,805	85,35
310,015	61,51
310,224	52,1
310,433	19,35
310,642	15,35
310,851	40,48
311,06	58,11
311,269	73,53
311,478	28,07
311,687	-24,41
311,896	62,01
312,106	81,84
312,315	101,17
312,524	144,73
312,733	165,06
312,942	34,37
313,151	139,73
313,36	45,39
313,569	94,96
313,778	34,68
313,987	13,54
314,195	112,39
314,404	90,76
314,613	65,62
314,822	91,46
315,031	43,59
315,24	23,66
315,449	142,53
315,658	35,38
315,867	36,98
316,076	29,27
316,284	103,68
316,493	120,2
316,702	86,95
316,911	88,45
317,12	61,91
317,329	132,62
317,537	126,81
317,746	-29,42
317,955	109,08
318,164	99,07
318,372	52,4
318,581	113,39
318,79	47,69
318,999	45,79
319,207	50,1
319,416	-19,5
319,625	76,74
319,833	75,73
320,042	114,89
320,251	75,53
320,459	50,9
320,668	47,99
320,877	88,75
321,085	10,94
321,294	-7,99
321,502	77,14
321,711	25,76
321,92	93,96
322,128	38,98
322,337	23,26
322,545	124,51
322,754	92,26
322,962	72,33
323,171	28,47
323,379	43,79
323,588	87,75
323,796	27,46
324,005	67,42
324,213	68,82
324,422	132,92
324,63	24,36
324,839	28,07
325,047	42,99
325,256	59,21
325,464	81,04
325,672	95,86
325,881	46,09
326,089	68,52
326,297	63,12
326,506	11,24
326,714	112,49
326,923	81,94
327,131	72,63
327,339	83,65
327,548	61,41
327,756	46,59
327,964	51,4
328,172	44,69
328,381	86,65
328,589	92,06
328,797	41,79
329,005	65,82
329,214	-2,38
329,422	82,74
329,63	59,21
329,838	155,95
330,046	29,57
330,255	78,64
330,463	75,53
330,671	22,16
330,879	158,35
331,087	76,44
331,295	89,35
331,503	77,84
331,712	49,6
331,92	79,64
332,128	82,64
332,336	112,09
332,544	6,43
332,752	45,99
332,96	45,79
333,168	51,5
333,376	-50,25
333,584	62,62
333,792	107,38
334	85,25
334,208	53,7
334,416	119,6
334,624	57,11
334,832	56,91
335,04	49,2
335,248	67,92
335,456	77,84
335,664	21,66
335,872	62,62
336,08	-9,59
336,287	46,59
336,495	121,9
336,703	64,02
336,911	115,09
337,119	40,98
337,327	88,85
337,535	94,16
337,742	44,79
337,95	84,75
338,158	69,53
338,366	32,57
338,573	55,91
338,781	70,53
338,989	125,31
339,197	104,38
339,404	47,89
339,612	77,04
339,82	44,19
340,028	29,27
340,235	127,51
340,443	66,12
340,651	99,27
340,858	-43,64
341,066	43,29
341,274	86,65
341,481	132,12
341,689	119,7
341,896	42,89
342,104	121,9
342,312	75,03
342,519	124,51
342,727	71,53
342,934	84,25
343,142	72,23
343,349	26,16
343,557	165,26
343,765	-2,68
343,972	103,07
344,18	59,51
344,387	70,63
344,594	121,3
344,802	172,68
345,009	61,51
345,217	73,23
345,424	117,5
345,632	36,38
345,839	99,77
346,047	93,16
346,254	45,19
346,461	97,57
346,669	75,43
346,876	82,95
347,083	93,06
347,291	66,02
347,498	74,23
347,705	97,87
347,913	61,31
348,12	66,52
348,327	89,65
348,535	27,06
348,742	67,02
348,949	52
349,156	51,7
349,364	50,9
349,571	82,04
349,778	86,85
349,985	49,4
350,192	94,06
350,4	99,97
350,607	106,28
350,814	85,55
351,021	29,47
351,228	75,43
351,435	125,41
351,643	70,43
351,85	93,06
352,057	109,78
352,264	96,36
352,471	79,94
352,678	129,21
352,885	112,59
353,092	77,44
353,299	52,2
353,506	78,34
353,713	109,98
353,92	16,65
354,127	119,6
354,334	77,44
354,541	62,32
354,748	103,27
354,955	142,33
355,162	114,09
355,369	69,23
355,576	129,51
355,783	125,81
355,99	74,93
356,197	32,77
356,404	81,34
356,611	79,14
356,817	41,69
357,024	88,95
357,231	115,99
357,438	80,04
357,645	66,32
357,852	95,56
358,058	121,2
358,265	89,35
358,472	97,57
358,679	92,56
358,885	71,53
359,092	140,63
359,299	17,05
359,506	57,01
359,712	63,52
359,919	44,69
360,126	54,4
360,333	24,16
360,539	108,88
360,746	74,33
360,953	119,1
361,159	49
361,366	18,75
361,572	110,89
361,779	80,24
361,986	70,23
362,192	62,82
362,399	107,68
362,605	73,43
362,812	65,92
363,019	67,62
363,225	59,21
363,432	135,72
363,638	34,07
363,845	59,91
364,051	135,42
364,258	66,62
364,464	151,74
364,671	53,8
364,877	114,49
365,084	127,41
365,29	56,71
365,496	128,61
365,703	47,19
365,909	68,12
366,116	111,49
366,322	72,43
366,528	57,61
366,735	53,1
366,941	57,81
367,147	77,44
367,354	161,76
367,56	113,09
367,766	118,5
367,973	140,73
368,179	78,24
368,385	63,32
368,592	128,51
368,798	116,69
369,004	68,22
369,21	78,14
369,417	134,22
369,623	37,28
369,829	88,45
370,035	108,28
370,241	115,39
370,448	58,91
370,654	107,28
370,86	54,3
371,066	94,26
371,272	105,58
371,478	104,68
371,684	93,96
371,891	125,51
372,097	98,87
372,303	43,09
372,509	80,94
372,715	76,84
372,921	79,34
373,127	88,55
373,333	134,52
373,539	47,09
373,745	112,19
373,951	121,7
374,157	60,41
374,363	96,77
374,569	78,44
374,775	82,44
374,981	56,01
375,187	38,28
375,393	97,87
375,599	100,47
375,804	104,58
376,01	84,25
376,216	92,16
376,422	78,04
376,628	113,89
376,834	114,49
377,04	119,1
377,246	91,16
377,451	66,92
377,657	36,78
377,863	130,01
378,069	54,2
378,274	135,22
378,48	118,6
378,686	129,41
378,892	114,29
379,097	86,35
379,303	117,3
379,509	98,67
379,715	147,84
379,92	127,31
380,126	130,21
380,332	47,09
380,537	100,97
380,743	166,77
380,949	94,46
381,154	84,25
381,36	91,16
381,565	96,67
381,771	113,59
381,977	89,55
382,182	90,26
382,388	105,18
382,593	104,38
382,799	89,96
383,004	52,8
383,21	107,78
383,415	47,99
383,621	70,73
383,826	86,55
384,032	131,92
384,237	54,2
384,443	104,58
384,648	67,02
384,854	155,15
385,059	60,21
385,265	81,84
385,47	69,13
385,675	122,6
385,881	124,51
386,086	55
386,291	62,62
386,497	131,32
386,702	56,81
386,907	79,94
387,113	64,72
387,318	114,89
387,523	74,13
387,729	110,18
387,934	126,41
388,139	120,6
388,344	105,18
388,55	160,36
388,755	77,54
388,96	122,9
389,165	196,31
389,371	155,65
389,576	53,5
389,781	175,48
389,986	67,22
390,191	141,83
390,396	74,73
390,601	112,29
390,807	93,86
391,012	124,41
391,217	112,49
391,422	104,48
391,627	96,67
391,832	17,35
392,037	151,34
392,242	190
392,447	112,09
392,652	60,71
392,857	141,83
393,062	81,64
393,267	134,42
393,472	89,25
393,677	75,03
393,882	108,58
394,087	124
394,292	153,15
394,497	136,42
394,702	111,19
394,907	164,76
395,112	120,4
395,317	124,31
395,521	115,09
395,726	86,95
395,931	106,58
396,136	135,32
396,341	40,78
396,546	102,27
396,75	104,98
396,955	113,09
397,16	57,91
397,365	133,52
397,57	116,89
397,774	101,07
397,979	133,82
398,184	80,44
398,389	184,89
398,593	163,56
398,798	116,29
399,003	114,59
399,207	130,01
399,412	126,61
399,617	99,47
399,821	103,88
400,026	241,98
400,231	210,93
400,435	143,63
400,64	132,22
400,844	114,19
401,049	156,45
401,254	146,34
401,458	129,71
401,663	127,81
401,867	177,48
402,072	165,36
402,276	168,77
402,481	144,03
402,685	183,19
402,89	180,69
403,094	217,94
403,299	187,5
403,503	202,52
403,708	111,89
403,912	155,45
404,116	158,65
404,321	243,28
404,525	174,58
404,73	224,65
404,934	222,15
405,138	205,12
405,343	300,96
405,547	223,05
405,751	230,26
405,956	199,61
406,16	238,67
406,364	274,82
406,569	255,4
406,773	173,08
406,977	223,75
407,181	182,09
407,386	304,57
407,59	229,56
407,794	282,43
407,998	234,16
408,202	254,49
408,407	286,44
408,611	287,24
408,815	306,37
409,019	281,53
409,223	353,04
409,427	333,11
409,632	394,9
409,836	379,58
410,04	334,51
410,244	370,56
410,448	334,41
410,652	426,64
410,856	334,81
411,06	423,44
411,264	461,19
411,468	432,75
411,672	420,13
411,876	533,8
412,08	477,02
412,284	504,66
412,488	486,73
412,692	592,08
412,896	521,78
413,1	558,94
413,304	560,94
413,508	605,6
413,712	598,69
413,916	628,94
414,12	656,58
414,323	645,56
414,527	644,26
414,731	652,97
414,935	749,21
415,139	804,89
415,343	769,04
415,546	852,26
415,75	752,22
415,954	873,29
416,158	796,78
416,361	791,97
416,565	855,26
416,769	930,97
416,973	922,86
417,176	1019,6
417,38	902,33
417,584	961,72
417,788	1098,42
417,991	1083,3
418,195	1097,22
418,398	1183,34
418,602	1183,04
418,806	1186,75
419,009	1214,89
419,213	1374,82
419,417	1326,25
419,62	1385,83
419,824	1415,88
420,027	1399,35
420,231	1427,29
420,434	1545,27
420,638	1532,05
420,841	1643,81
421,045	1673,05
421,248	1687,47
421,452	1728,13
421,655	1815,36
421,859	1844,4
422,062	1822,37
422,266	1974,99
422,469	1930,52
422,673	1974,59
422,876	2082,34
423,079	1977,09
423,283	2099,37
423,486	2235,67
423,689	2281,73
423,893	2415,63
424,096	2373,17
424,299	2452,78
424,503	2426,14
424,706	2457,89
424,909	2571,45
425,113	2656,68
425,316	2717,56
425,519	2710,05
425,722	2991,86
425,926	2774,25
426,129	2998,07
426,332	2873,19
426,535	3091,61
426,739	3052,95
426,942	3107,63
427,145	3089
427,348	3412,67
427,551	3311,43
427,754	3376,72
427,957	3429,9
428,161	3439,41
428,364	3596,74
428,567	3741,55
428,77	3701,29
428,973	3919,21
429,176	3978,39
429,379	3981,3
429,582	3917,1
429,785	4201,01
429,988	4133,32
430,191	4556,03
430,394	4350,03
430,597	4524,88
430,8	4602,6
431,003	4868,38
431,206	4476,71
431,409	4944,49
431,612	4823,92
431,815	5190,55
432,018	5345,07
432,221	5452,73
432,423	5455,43
432,626	5742,05
432,829	5686,37
433,032	5938,83
433,235	6048,79
433,438	6107,48
433,64	5891,47
433,843	6256,49
434,046	6211,23
434,249	6121,9
434,452	6514,97
434,654	6406,91
434,857	6640,15
435,06	6661,38
435,263	6958,51
435,465	7083,99
435,668	7027,11
435,871	7328,95
436,073	7181,64
436,276	7637,1
436,479	7483,27
436,681	7859,02
436,884	7591,33
437,087	7817,56
437,289	7968,18
437,492	8165,96
437,694	8077,63
437,897	8136,52
438,1	8073,73
438,302	8229,25
438,505	8418,33
438,707	8609,61
438,91	8548,32
439,112	8752,21
439,315	8672,5
439,517	9191,55
439,72	9174,42
439,922	9175,43
440,125	9337,16
440,327	9317,13
440,529	9367,4
440,732	10385,38
440,934	9559,78
441,137	10139,62
441,339	10055,3
441,541	10337,61
441,744	10097,56
441,946	10408,41
442,148	10611,91
442,351	11033,22
442,553	10623,12
442,755	11228,1
442,958	10955,61
443,16	11256,64
443,362	11047,74
443,565	11447,82
443,767	11550,67
443,969	11775,9
444,171	11536,95
444,373	12260,6
444,576	12657,17
444,778	12793,77
444,98	12239,47
445,182	13085,39
445,384	12919,15
445,586	13684,76
445,789	13207,97
445,991	13436,8
446,193	13746,55
446,395	14056,9
446,597	13831,98
446,799	14081,24
447,001	14624,42
447,203	14979,34
447,405	14741,69
447,607	15230,2
447,809	15504,2
448,011	15503,8
448,213	15658,62
448,415	15776,39
448,617	15734,13
448,819	16168,16
449,021	15369
449,223	17283,08
449,425	16392,89
449,627	17598,14
449,829	16498,64
450,031	18298,15
450,233	17079,18
450,435	17859,91
450,636	17703,49
450,838	17684,36
451,04	18269,21
451,242	17778,1
451,444	17645,4
451,646	18275,62
451,847	18645,45
452,049	18498,34
452,251	18749,3
452,453	19079,98
452,654	18857,86
452,856	19179,23
453,058	20676,8
453,26	19556,17
453,461	19243,32
453,663	19522,22
453,865	20809,79
454,066	21546,36
454,268	19646,6
454,47	19589,02
454,671	20108,27
454,873	19970,37
455,074	19512,81
455,276	20346,12
455,478	19283,18
455,679	20134,31
455,881	20745,6
456,082	20437,15
456,284	19792,32
456,485	20151,24
456,687	20152,24
456,888	20394,09
457,09	19552,07
457,291	19601,24
457,493	19385,03
457,694	20085,34
457,896	19202,76
458,097	19213,68
458,299	19152,49
458,5	18607,6
458,701	18586,47
458,903	19285,08
459,104	18796,97
459,306	18531,69
459,507	18054,7
459,708	18525,38
459,91	17793,72
460,111	17719,51
460,312	18440,36
460,514	16996,26
460,715	17392,64
460,916	17852,5
461,117	16712,15
461,319	16555,22
461,52	16558,33
461,721	16296,95
461,922	15824,96
462,124	15440,21
462,325	16035,37
462,526	15568,69
462,727	14817,6
462,928	15298,7
463,129	14380,87
463,331	15014,59
463,532	14327,69
463,733	14289,54
463,934	13981,29
464,135	14662,58
464,336	13184,74
464,537	14444,26
464,738	13571
464,939	12970,53
465,14	13020,9
465,341	13930,52
465,542	13155,7
465,743	12994,36
465,944	12384,98
466,145	13019,8
466,346	12976,64
466,547	12420,43
466,748	12012,54
466,949	12473,41
467,15	12196,71
467,351	11634,99
467,552	12146,03
467,753	11645,11
467,953	11724,42
468,154	11497,69
468,355	11103,42
468,556	11210,08
468,757	11521,53
468,958	11475,36
469,158	11154,59
469,359	11081,59
469,56	11140,87
469,761	10899,63
469,962	11510,31
470,162	11295,2
470,363	11004,48
470,564	11155,9
470,764	10709,35
470,965	10689,12
471,166	10449,97
471,366	11047,44
471,567	10423,94
471,768	10709,05
471,968	10474,31
472,169	10288,64
472,37	9993,51
472,57	10169,07
472,771	10289,84
472,971	10386,28
473,172	10151,04
473,373	10184,69
473,573	9776,3
473,774	9983,1
473,974	10188,79
474,175	10465
474,375	9969,68
474,576	9814,95
474,776	9787,81
474,977	9902,88
475,177	9688,27
475,377	9352,48
475,578	9204,27
475,778	9511,81
475,979	9103,82
476,179	9412,37
476,379	9486,78
476,58	9204,37
476,78	8938,58
476,981	8963,12
477,181	8796,68
477,381	8720,27
477,582	8652,07
477,782	8982,95
477,982	8709,75
478,182	8795,98
478,383	8589,48
478,583	8721,77
478,783	8540,51
478,983	8811,2
479,184	8467,3
479,384	8604,3
479,584	8300,46
479,784	8377,27
479,984	8265,01
480,184	8111,38
480,385	8121,1
480,585	8465,4
480,785	8044,79
480,985	8121,1
481,185	7973,58
481,385	8051,1
481,585	7759,17
481,785	8080,64
481,985	7886,66
482,185	8100,87
482,385	7706,7
482,585	7754,17
482,785	7862,72
482,985	7733,14
483,185	7724,32
483,385	7685,77
483,585	7583,02
483,785	7603,25
483,985	7434,7
484,185	7653,22
484,385	7415,57
484,585	7475,26
484,785	7391,44
484,985	7559,48
485,185	7416,18
485,384	7436,71
485,584	7482,47
485,784	7391,54
485,984	7294,2
486,184	7409,37
486,383	7347,98
486,583	7402,46
486,783	7282,88
486,983	7272,87
487,183	7205,17
487,382	7304,91
487,582	7177,73
487,782	7266,56
487,981	7207,37
488,181	7229,61
488,381	7203,27
488,58	7241,62
488,78	7198,86
488,98	7219,09
489,179	7149,39
489,379	7239,92
489,579	7124,25
489,778	7335,46
489,978	7200,76
490,177	7060,76
490,377	7151,89
490,576	7066,57
490,776	7111,53
490,975	7265,96
491,175	7175,53
491,374	7149,39
491,574	7135,87
491,773	7071,78
491,973	7044,84
492,172	7232,71
492,372	7097,41
492,571	7198,56
492,771	7183,74
492,97	7241,42
493,169	7115,94
493,369	7370,11
493,568	7133,27
493,767	7200,96
493,967	7199,36
494,166	7297,1
494,365	7215,79
494,565	7155,8
494,764	7180,33
494,963	7230,01
495,163	7348,38
495,362	7307,02
495,561	7178,53
495,76	7540,36
495,959	7155,6
496,159	7306,12
496,358	7326,85
496,557	7476,46
496,756	7343,97
496,955	7352,18
497,155	7453,03
497,354	7424,69
497,553	7374,11
497,752	7546,16
497,951	7528,34
498,15	7667,04
498,349	7418,58
498,548	7561,29
498,747	7592,43
498,946	7554,88
499,145	7553,57
499,344	7649,21
499,543	7658,13
499,742	7742,75
499,941	7684,76
500,14	7822,46
500,339	7679,96
500,538	7947,15
500,737	7887,96
500,936	8048,99
501,135	8104,17
501,334	8351,93
501,533	8266,71
501,732	8394,89
501,931	8339,21
502,129	8419,73
502,328	8510,56
502,527	8580,66
502,726	8537,5
502,925	8743,2
503,123	8889,01
503,322	8966,82
503,521	8955,51
503,72	9096,41
503,919	9212,48
504,117	9338,06
504,316	9340,77
504,515	9508,41
504,713	9703,89
504,912	9705,99
505,111	9818,06
505,309	10047,89
505,508	10074,23
505,707	10351,43
505,905	10189,3
506,104	10554,32
506,302	10611,01
506,501	10777,05
506,7	10788,86
506,898	11120,45
507,097	11081,39
507,295	11313,02
507,494	11234,81
507,692	11582,92
507,891	11716,21
508,089	11926,81
508,288	11936,73
508,486	12208,22
508,685	12134,72
508,883	12500,95
509,082	12591,88
509,28	12994,16
509,478	12932,67
509,677	13349,38
509,875	13578,41
510,073	13879,95
510,272	13893,26
510,47	14254,59
510,669	14240,87
510,867	14761,92
511,065	14661,58
511,263	15156,4
511,462	15227,5
511,66	15457,93
511,858	15685,46
512,056	16042,78
512,255	16027,46
512,453	16487,43
512,651	16541,7
512,849	17022
513,048	17042,53
513,246	17483,57
513,444	17757,07
513,642	17925,71
513,84	18087,95
514,038	18601,79
514,236	18696,63
514,435	19030,31
514,633	19154,69
514,831	19673,34
515,029	19946,84
515,227	20372,86
515,425	20375,06
515,623	20929,56
515,821	21233,81
516,019	21566,39
516,217	21586,52
516,415	22041,18
516,613	22010,63
516,811	22543,8
517,009	22715,35
517,207	23328,44
517,405	23578,7
517,602	24060,9
517,8	24030,26
517,998	24452,77
518,196	24914,24
518,394	25331,45
518,592	25335,05
518,79	25932,92
518,987	25938,23
519,185	26493,73
519,383	26678,7
519,581	27142,77
519,779	26988,45
519,976	27796,62
520,174	27836,08
520,372	28385,07
520,57	28281,62
520,767	28967,02
520,965	28815,5
521,163	29479,46
521,36	29688,16
521,558	29960,46
521,756	29972,47
521,953	30734,68
522,151	30659,67
522,349	31126,65
522,546	31193,94
522,744	31696,37
522,941	31638,09
523,139	32327,09
523,336	32755,01
523,534	33363,39
523,731	32967,62
523,929	33499,79
524,126	33733,02
524,324	33958,15
524,521	34306,66
524,719	34607,29
524,916	34623,22
525,114	34823
525,311	35028,3
525,509	35760,56
525,706	35621,36
525,903	35944,23
526,101	36193,29
526,298	36490,02
526,496	36483,71
526,693	37255,33
526,89	36818
527,088	37563,28
527,285	37435,79
527,482	37918,29
527,679	37804,13
527,877	38430,43
528,074	38311,06
528,271	38929,56
528,468	39147,77
528,666	39602,73
528,863	39292,08
529,06	40100,56
529,257	39590,32
529,454	40104,66
529,652	40198,2
529,849	40832,62
530,046	40556,02
530,243	41298,19
530,44	41084,38
530,637	41433,19
530,834	41183,42
531,031	41404,55
531,228	41702,48
531,425	42347,71
531,622	42161,34
531,819	42910,23
532,016	42860,06
532,213	42908,63
532,41	43459,62
532,607	43980,28
532,804	43900,36
533,001	44272,8
533,198	44383,56
533,395	44827,11
533,592	44160,74
533,789	45608,84
533,986	45042,52
534,183	46074,82
534,38	45680,84
534,576	46429,93
534,773	45766,47
534,97	46235,25
535,167	46057,69
535,364	47161,69
535,561	46509,65
535,757	47300,39
535,954	46956,89
536,151	47424,87
536,348	47400,04
536,544	47686,25
536,741	47521,61
536,938	48358,43
537,134	47710,29
537,331	48817,49
537,528	48133,8
537,724	49036,11
537,921	48198,99
538,118	49602,83
538,314	48444,05
538,511	49402,04
538,707	48755,5
538,904	49455,52
539,101	48916,23
539,297	49786,1
539,494	49200,35
539,69	49864,81
539,887	49759,86
540,083	50551,4
540,28	50368,84
540,476	50449,06
540,673	49968,26
540,869	51392,02
541,066	50798,46
541,262	51414,46
541,458	51250,12
541,655	51509,59
541,851	51663,92
542,048	52014,53
542,244	51931,41
542,44	52137,1
542,637	51636,68
542,833	53037,61
543,029	52671,18
543,226	53244,61
543,422	53116,22
543,618	53747,44
543,814	53350,96
544,011	53805,52
544,207	53071,16
544,403	53817,64
544,599	53924,79
544,796	54342,5
544,992	54124,78
545,188	54388,77
545,384	54301,44
545,58	54577,34
545,776	54418,61
545,972	54710,83
546,169	54187,18
546,365	54770,82
546,561	54427,62
546,757	54933,96
546,953	54521,66
547,149	55126,14
547,345	54542,49
547,541	55326,13
547,737	54513,45
547,933	55310,4
548,129	54921,24
548,325	56075,01
548,521	55282,06
548,717	56385,66
548,913	55075,06
549,109	56060,99
549,305	55389,02
549,501	55743,23
549,697	55357,17
549,892	55946,33
550,088	55386,51
550,284	56128,59
550,48	55980,88
550,676	57093,99
550,872	55836,57
551,067	57067,25
551,263	56236,25
551,459	57047,52
551,655	56493,82
551,85	56679,59
552,046	56727,16
552,242	56738,37
552,438	56322,67
552,633	56917,83
552,829	56513,55
553,025	57419,76
553,22	56863,45
553,416	56943,87
553,612	56743,58
553,807	57693,26
554,003	57696,46
554,198	57768,67
554,394	57459,02
554,59	58499,43
554,785	57239,4
554,981	58487,41
555,176	57827,85
555,372	58245,66
555,567	57985,88
555,763	58482,4
555,958	57689,95
556,154	57910,37
556,349	58000,2
556,545	57871,62
556,74	57501,38
556,936	57916,38
557,131	57412,25
557,326	57474,24
557,522	57785,19
557,717	58068
557,912	57655,4
558,108	58344,6
558,303	57766,16
558,498	58609,79
558,694	58013,42
558,889	58272,8
559,084	58185,37
559,28	58228,53
559,475	57875,92
559,67	58327,08
559,865	58038,66
560,061	58139,5
560,256	58307,55
560,451	58169,15
560,646	57582,5
560,841	58808,47
561,037	58104,35
561,232	58847,73
561,427	58618,1
561,622	59264,44
561,817	58575,04
562,012	59279,96
562,207	59208,55
562,402	59580,59
562,597	58974,82
562,792	59142,26
562,987	59043,11
563,182	58806,57
563,377	58503,53
563,572	59349,56
563,767	58420,41
563,962	58811,08
564,157	58587,85
564,352	58669,67
564,547	58856,64
564,742	59165,59
564,937	58708,43
565,132	59143,56
565,327	58800,16
565,522	59062,54
565,716	58662,06
565,911	59320,62
566,106	58690,3
566,301	59322,62
566,496	58429,52
566,691	59196,84
566,885	58666,17
567,08	59100,2
567,275	58442,24
567,47	59146,66
567,664	58341,2
567,859	59274,65
568,054	58836,41
568,248	59420,76
568,443	59196,74
568,638	59634,77
568,832	59064,55
569,027	59632,77
569,222	59174
569,416	59604,43
569,611	59366,88
569,805	59731,51
570	59552,95
570,195	59197,84
570,389	59523,21
570,584	59183,22
570,778	58881,68
570,973	59875,42
571,167	58658,16
571,362	59645,49
571,556	58784,84
571,751	59341,45
571,945	58370,74
572,139	59029,19
572,334	58565,42
572,528	58905,82
572,723	58359,42
572,917	59149,17
573,111	58677,38
573,306	58950,08
573,5	58877,67
573,694	58494,22
573,889	58493,72
574,083	59159,38
574,277	58414
574,472	58845,13
574,666	58658,86
574,86	59410,05
575,054	59058,24
575,249	59882,63
575,443	58971,31
575,637	59485,46
575,831	59142,46
576,025	59523,11
576,219	58520,56
576,414	59404,94
576,608	58859,35
576,802	59483,35
576,996	58821,09
577,19	59157,48
577,384	59020,88
577,578	58892,8
577,772	58253,97
577,966	59412,85
578,16	58218,32
578,354	59045,32
578,548	58158,83
578,742	58707,33
578,936	58023,44
579,13	58652,75
579,324	58144,21
579,518	58650,85
579,712	57756,15
579,906	58423,42
580,1	57651,2
580,294	58651,75
580,488	57324,42
580,682	58181,26
580,875	57631,27
581,069	57981,68
581,263	57686,45
581,457	58070,9
581,651	57657,01
581,845	57879,13
582,038	57184,92
582,232	58074,61
582,426	56901,01
582,62	58059,39
582,813	56934,66
583,007	57461,82
583,201	56392,47
583,394	57406,14
583,588	57068,55
583,782	57255,22
583,975	56903,81
584,169	57634,07
584,363	56988,54
584,556	57310,9
584,75	56661,16
584,943	57190,43
585,137	56889,39
585,33	57265,34
585,524	56818,39
585,718	57600,02
585,911	56497,02
586,105	57053,83
586,298	56279,81
586,491	57154,18
586,685	56836,52
586,878	57185,12
587,072	56480,1
587,265	56943,87
587,459	56244,36
587,652	57219,87
587,845	56019,43
588,039	56992,14
588,232	56388,87
588,426	56525,06
588,619	55631,27
588,812	55941,82
589,005	55461,32
589,199	56003,51
589,392	55410,05
589,585	55793,2
589,779	55139,16
589,972	55658,21
590,165	54885,59
590,358	55661,11
590,551	54984,43
590,745	55327,43
590,938	54902,71
591,131	55420,16
591,324	52785,04
591,517	55234,79
591,71	54668,07
591,904	55187,63
592,097	54498,93
592,29	55027,79
592,483	54136,6
592,676	54798,36
592,869	53903,06
593,062	54602,38
593,255	53938,21
593,448	54426,12
593,641	53788,2
593,834	54317,76
594,027	53805,52
594,22	54236,75
594,413	53618,95
594,606	54036,06
594,799	53285,87
594,992	53960,55
595,184	53041,11
595,377	53384,41
595,57	53156,48
595,763	53629,17
595,956	52748,49
596,149	53225,18
596,341	53220,07
596,534	52987,24
596,727	52662,16
596,92	53038,31
597,113	52613,29
597,305	52874,87
597,498	52465,08
597,691	52647,24
597,883	52095,74
598,076	52318,87
598,269	51995,1
598,462	52470,89
598,654	52166,45
598,847	52189,18
599,039	51972,46
599,232	52139,71
599,425	51618,55
599,617	51609,14
599,81	51740,83
600,002	51742,83
600,195	50723,65
600,387	51645,29
600,58	50603,88
600,772	50913,43
600,965	50094,14
601,157	50710,03
601,35	50410,4
601,542	50595,27
601,735	50064
601,927	50718,75
602,12	49726,11
602,312	50335,59
602,504	49599,83
602,697	49514,4
602,889	49573,59
603,082	49670,83
603,274	49410,95
603,466	49743,03
603,659	48853,04
603,851	48961,7
604,043	48566,63
604,235	49114,32
604,428	47793,31
604,62	48760,01
604,812	48406,5
605,004	48936,06
605,197	48181,77
605,389	48989,54
605,581	47952,64
605,773	48357,62
605,965	47848,59
606,157	48300,64
606,349	47515,5
606,542	47856,9
606,734	47337,75
606,926	47892,35
607,118	47214,77
607,31	47775,28
607,502	46938,27
607,694	48059,69
607,886	46885,89
608,078	47931,61
608,27	46828,01
608,462	47226,89
608,654	46616,4
608,846	47413,26
609,038	46678,99
609,23	46972,22
609,422	46583,45
609,614	46573,34
609,805	45903,97
609,997	45849,99
610,189	46031,35
610,381	46378,56
610,573	45697,77
610,765	46576,84
610,957	45973,67
611,148	46180,97
611,34	45488,57
611,532	46605,28
611,724	45881,84
611,915	45965,26
612,107	45653,3
612,299	46452,96
612,491	45645,19
612,682	45996,9
612,874	45252,62
613,066	45839,37
613,257	44990,84
613,449	45805,12
613,64	45427,78
613,832	45191,43
614,024	45389,12
614,215	45352,27
614,407	45473,34
614,598	45708,78
614,79	45451,61
614,981	46073,11
615,173	45824,45
615,364	46333,09
615,556	45671,93
615,747	46549,4
615,939	45290,78
616,13	46069,21
616,322	45741,83
616,513	45788,6
616,705	45169,8
616,896	45988,49
617,087	45007,97
617,279	45724,41
617,47	44824,5
617,661	45740,33
617,853	44873,77
618,044	45440,7
618,235	45293,88
618,427	45292,28
618,618	45088,99
618,809	45680,84
619	45181,92
619,192	45694,86
619,383	45182,92
619,574	45895,46
619,765	45208,36
619,957	46000,01
620,148	45118,63
620,339	45922,29
620,53	44962,5
620,721	45185,63
620,912	44310,26
621,103	45389,42
621,294	44550,81
621,485	44966,81
621,677	44210,71
621,868	44579,95
622,059	43581,5
622,25	44117,38
622,441	43456,42
622,632	43447,61
622,823	43111,82
623,014	43231,59
623,205	43186,63
623,395	42900,91
623,586	42668,28
623,777	43555,46
623,968	42823,8
624,159	43279,66
624,35	43075,57
624,541	43174,81
624,732	42796,36
624,923	42958,7
625,113	42342,2
625,304	41956,14
625,495	41732,52
625,686	41791,11
625,877	41390,22
626,067	41170,51
626,258	40962,3
626,449	41010,37
626,639	40410,7
626,83	40845,53
627,021	40109,27
627,211	40424,02
627,402	40128,7
627,593	40223,63
627,783	40085,33
627,974	40072,21
628,165	39446,81
628,355	39446,11
628,546	38981,73
628,736	39277,66
628,927	38405,5
629,117	38742,99
629,308	38093,45
629,498	38209,01
629,689	37595,02
629,879	38117,48
630,07	37811,24
630,26	37493,68
630,451	37221,28
630,641	37708,99
630,832	36957,3
631,022	37280,07
631,212	36673,09
631,403	36810,59
631,593	36167,85
631,784	36754,1
631,974	36132,2
632,164	36769,13
632,355	36098,15
632,545	36367,74
632,735	35900,47
632,925	35607,94
633,116	35357,58
633,306	35207,36
633,496	34998,16
633,686	35589,92
633,876	35039,72
634,067	35176,52
634,257	34876,38
634,447	35217,58
634,637	35109,42
634,827	35098,3
635,017	34540,5
635,208	35060,95
635,398	34428,93
635,588	34722,26
635,778	33790,31
635,968	34379,96
636,158	33570,39
636,348	33852,9
636,538	33320,03
636,728	33655,31
636,918	32863,96
637,108	33315,02
637,298	32715,85
637,488	33064,86
637,678	32628,12
637,868	32709,14
638,057	32562,03
638,247	32786,05
638,437	32519,97
638,627	32924,75
638,817	32036,57
639,007	32725,06
639,197	31965,96
639,386	32057,4
639,576	31474,55
639,766	31643,5
639,956	31383,82
640,145	31481,16
640,335	30910,13
640,525	31427,28
640,715	30819,9
640,904	30952,79
641,094	30342,21
641,284	30819,4
641,473	30488,12
641,663	30587,77
641,853	30480,81
642,042	30828,31
642,232	30139,32
642,421	30517,46
642,611	30442,96
642,801	30337,2
642,99	30180,17
643,18	30453,87
643,369	29817,85
643,559	29906,88
643,748	29795,12
643,938	29702,68
644,127	29203,86
644,317	29487,47
644,506	29010,78
644,695	28913,44
644,885	29030,01
645,074	28696,42
645,264	28380,57
645,453	28420,12
645,642	28290,74
645,832	28463,39
646,021	28080,23
646,21	28328,99
646,4	27776,29
646,589	28092,05
646,778	27604,94
646,967	27787,21
647,157	27184,03
647,346	27551,76
647,535	27142,67
647,724	27263,75
647,913	27127,75
648,103	27110,12
648,292	26669,39
648,481	26914,44
648,67	26653,06
648,859	26611,2
649,048	26468,39
649,237	26322,28
649,427	26124,7
649,616	26219,03
649,805	25690,47
649,994	25983,99
650,183	25671,24
650,372	26089,64
650,561	25255,84
650,75	25753,56
650,939	25347,37
651,128	25663,23
651,317	25371
651,506	25729,22
651,694	25403,15
651,883	25722,71
652,072	25302
652,261	25561,38
652,45	24918,75
652,639	25378,31
652,828	24860,06
653,016	25069,57
653,205	24439,85
653,394	24702,43
653,583	24446,26
653,772	24639,44
653,96	24107,57
654,149	24145,63
654,338	23728,92
654,527	24089,45
654,715	23667,73
654,904	24125,1
655,093	23500,49
655,281	23654,92
655,47	23322,63
655,658	23409,96
655,847	23103,92
656,036	23290,39
656,224	22790,36
656,413	23048,04
656,601	22660,27
656,79	22911,84
656,978	22397,19
657,167	22852,75
657,355	22382,87
657,544	22901,82
657,732	22341,11
657,921	22532,99
658,109	22083,84
658,298	22432,84
658,486	21861,32
658,675	22106,77
658,863	21959,06
659,051	21899,77
659,24	21538,55
659,428	21823,36
659,616	21535,64
659,805	21640,4
659,993	21147,78
660,181	21648,11
660,37	21207,27
660,558	21263,25
660,746	21138,57
660,934	21208,07
661,123	20757,52
661,311	21215,08
661,499	20890,41
661,687	20869,68
661,875	20571,45
662,064	20668,79
662,252	20241,07
662,44	20158,95
662,628	20112,58
662,816	20074,02
663,004	19909,19
663,192	19804,73
663,38	19768,38
663,568	19716,31
663,756	19698,48
663,944	19684,46
664,132	19432,29
664,32	19518,22
664,508	19096,01
664,696	19285,48
664,884	18936,98
665,072	19096,61
665,26	18633,84
665,448	19150,89
665,636	18785,96
665,824	18927,96
666,012	18523,48
666,199	18715,96
666,387	18382,07
666,575	18475,21
666,763	18497,54
666,951	18547,81
667,139	18329,9
667,326	18303,66
667,514	17954,65
667,702	18233,06
667,889	17882,45
668,077	17955,05
668,265	17564,99
668,453	17710,3
668,64	17649,51
668,828	17578,31
669,016	17144,58
669,203	17502,4
669,391	17134,36
669,578	17448,62
669,766	16989,65
669,954	17134,36
670,141	16925,56
670,329	16885,4
670,516	16839,44
670,704	16883,3
670,891	16553,72
671,079	16775,54
671,266	16559,93
671,454	16667,99
671,641	16359,64
671,828	16449,37
672,016	16133,31
672,203	16211,73
672,391	15837,28
672,578	16146,83
672,765	15591,83
672,953	15943,64
673,14	15701,89
673,327	15741,94
673,515	15658,72
673,702	15653,02
673,889	15218,79
674,077	15384,03
674,264	15199,56
674,451	15286,08
674,638	15054,25
674,825	15145,38
675,013	14781,35
675,2	14925,36
675,387	14697,23
675,574	14742
675,761	14655,57
675,948	14658,67
676,136	14619,32
676,323	14668,89
676,51	14211,33
676,697	14608,5
676,884	14253,39
677,071	14339,41
677,258	14031,67
677,445	14120,89
677,632	13888,06
677,819	13931,92
678,006	13745,35
678,193	13869,03
678,38	13674,35
678,567	13708,6
678,754	13752,46
678,94	13617,97
679,127	13525,23
679,314	13461,14
679,501	13324,14
679,688	13421,68
679,875	13131,46
680,062	13318,23
680,248	13058,96
680,435	13087,5
680,622	12972,13
680,809	13103,82
680,995	12680,61
681,182	12888,41
681,369	12631,34
681,556	12830,92
681,742	12650,56
681,929	12676,8
682,116	12568,24
682,302	12500,95
682,489	12362,55
682,675	12307,67
682,862	12310,77
683,049	12393,19
683,235	12262,1
683,422	12249,78
683,608	12057,4
683,795	12126,6
683,981	11813,95
684,168	12040,38
684,354	11917,2
684,541	12121,9
684,727	11927,01
684,914	11927,72
685,1	11610,36
685,287	11586,02
685,473	11485,77
685,659	11558,98
685,846	11409,06
686,032	11492,38
686,218	11258,35
686,405	11386,63
686,591	11194,35
686,777	11362,3
686,964	11138,17
687,15	11250,53
687,336	11031,12
687,522	11015,69
687,709	10823,31
687,895	11021,2
688,081	10841,04
688,267	10880,5
688,454	10730,58
688,64	10793,07
688,826	10672,7
689,012	10743,5
689,198	10564,54
689,384	10679,21
689,57	10430,24
689,756	10527,49
689,942	10375,27
690,128	10467,8
690,314	10216,23
690,501	10356,24
690,687	10333,6
690,873	10288,54
691,058	10058,91
691,244	10215,03
691,43	9949,65
691,616	10212,63
691,802	9986,4
691,988	10170,57
692,174	9957,56
692,36	9942,34
692,546	9756,37
692,732	9883,95
692,917	9709,8
693,103	9810,95
693,289	9649,61
693,475	9665,14
693,661	9410,47
693,846	9684,76
694,032	9284,88
694,218	9455,23
694,404	9332,45
694,589	9291,69
694,775	9223,5
694,961	9224
695,146	8975,44
695,332	9155,3
695,518	8993,36
695,703	8956,31
695,889	8783,96
696,074	8865,78
696,26	8705,24
696,446	8745,7
696,631	8604,8
696,817	8760,52
697,002	8552,22
697,188	8590,88
697,373	8421,63
697,559	8512,36
697,744	8364,35
697,93	8520,38
698,115	8241,37
698,3	8341,22
698,486	8143,53
698,671	8374,87
698,857	8159,75
699,042	8156,35
699,227	8190,6
699,413	8218,64
699,598	8109,78
699,783	8157,75
699,969	8029,66
700,154	8034,37
700,339	7858,02
700,524	8003,23
700,71	7868,33
700,895	7922,11
701,08	7893,47
701,265	7875,84
701,45	7835,58
701,636	7846,2
701,821	7617,87
702,006	7641,5
702,191	7521,83
702,376	7475,66
702,561	7397,85
702,746	7367
702,931	7414,67
703,116	7434,3
703,301	7245,23
703,486	7336,16
703,671	7280,28
703,856	7296,8
704,041	7282,78
704,226	7329,05
704,411	7097,01
704,596	7133,37
704,781	7099,92
704,966	7196,16
705,151	7036,93
705,336	6985,05
705,521	6966,02
705,706	7072,88
705,89	6801,08
706,075	6855,66
706,26	6780,75
706,445	6806,59
706,63	6674,9
706,814	6746,3
706,999	6625,13
707,184	6729,38
707,368	6602,2
707,553	6672,8
707,738	6470,3
707,923	6649,66
708,107	6500,45
708,292	6592,88
708,476	6543,91
708,661	6437,26
708,846	6434,05
709,03	6483,92
709,215	6400,6
709,399	6380,57
709,584	6278,83
709,768	6344,42
709,953	6235,76
710,137	6241,97
710,322	6138,72
710,506	6134,32
710,691	6102,77
710,875	6089,95
711,06	5987
711,244	6022,76
711,429	5936,03
711,613	5979,89
711,797	5935,63
711,982	5923,41
712,166	5873,54
712,35	5854,51
712,535	5819,26
712,719	5856,61
712,903	5692,48
713,088	5749,76
713,272	5611,56
713,456	5655,72
713,64	5592,03
713,824	5580,01
714,009	5610,46
714,193	5561,49
714,377	5420,88
714,561	5530,54
714,745	5547,57
714,929	5547,57
715,113	5397,85
715,298	5404,26
715,482	5418,78
715,666	5351,08
715,85	5287,79
716,034	5352,28
716,218	5219,79
716,402	5292,2
716,586	5186,34
716,77	5250,54
716,954	5206,97
717,138	5118,95
717,322	4990,26
717,506	5108,63
717,689	4992,66
717,873	4955,11
718,057	4902,33
718,241	4895,82
718,425	4852,26
718,609	4828,42
718,793	4791,27
718,976	4761,83
719,16	4740,5
719,344	4736,69
719,528	4651,87
719,711	4632,34
719,895	4608,1
720,079	4679,51
720,263	4540,51
720,446	4514,77
720,63	4396
720,814	4366,76
720,997	4412,72
721,181	4431,45
721,364	4366,05
721,548	4374,77
721,732	4357,74
721,915	4410,92
722,099	4297,45
722,282	4396,4
722,466	4280,33
722,649	4213,03
722,833	4221,54
723,016	4253,09
723,2	4217,54
723,383	4181,49
723,567	4201,52
723,75	4180,38
723,934	4144,93
724,117	4123,3
724,3	4094,76
724,484	4065,92
724,667	4023,46
724,85	4114,79
725,034	4035,07
725,217	4016,35
725,4	3987,2
725,584	4052,3
725,767	3839,29
725,95	3991,91
726,133	3867,63
726,317	3889,16
726,5	3826,47
726,683	3895,47
726,866	3830,78
727,049	3802,84
727,232	3761,08
727,416	3753,67
727,599	3770,59
727,782	3711,91
727,965	3636,2
728,148	3829,58
728,331	3730,83
728,514	3712,41
728,697	3649,62
728,88	3626,58
729,063	3630,99
729,246	3589,63
729,429	3562,89
729,612	3585,22
729,795	3548,27
729,978	3587,43
730,161	3527,24
730,344	3530,94
730,526	3500,2
730,709	3534,35
730,892	3490,58
731,075	3414,67
731,258	3396,85
731,441	3455,63
731,623	3370,21
731,806	3274,97
731,989	3277,68
732,172	3237,52
732,354	3237,52
732,537	3345,98
732,72	3187,75
732,903	3312,43
733,085	3202,07
733,268	3275,07
733,451	3147,59
733,633	3268,66
733,816	3140,28
733,998	3135,47
734,181	3024,21
734,364	3108,13
734,546	3095,01
734,729	3071,38
734,911	3041,03
735,094	3020,8
735,276	3028,92
735,459	2999,17
735,641	2990,66
735,824	2948,1
736,006	2947,4
736,188	3021,81
736,371	2901,43
736,553	2957,21
736,736	2907,14
736,918	2891,32
737,1	2892,32
737,283	2839,34
737,465	2881,9
737,647	2867,08
737,83	2742,9
738,012	2792,37
738,194	2808,9
738,376	2751,11
738,559	2746,41
738,741	2755,82
738,923	2742,3
739,105	2807,8
739,287	2714,36
739,469	2761,43
739,652	2726,68
739,834	2711,26
740,016	2674,7
740,198	2693,03
740,38	2560,74
740,562	2589,48
740,744	2677,01
740,926	2575,26
741,108	2547,52
741,29	2542,51
741,472	2537
741,654	2556,33
741,836	2539,71
742,018	2547,72
742,2	2494,24
742,382	2443,87
742,564	2509,66
742,746	2458,19
742,928	2443,07
743,109	2372,76
743,291	2309,07
743,473	2351,83
743,655	2335,81
743,837	2349,53
744,019	2324,49
744,2	2389,09
744,382	2339,72
744,564	2297,96
744,746	2251,09
744,927	2323,79
745,109	2266,31
745,291	2307,07
745,472	2268,91
745,654	2305,07
745,836	2247,58
746,017	2226,15
746,199	2253,89
746,38	2216,74
746,562	2080,34
746,744	2224,45
746,925	2144,33
747,107	2184,29
747,288	2159,46
747,47	2083,14
747,651	2035,18
747,833	2043,79
748,014	2080,64
748,195	2147,04
748,377	2052,6
748,558	2050,9
748,74	2015,75
748,921	2031,27
749,102	2001,63
749,284	1930,42
749,465	1995,52
749,646	1972,08
749,828	1889,46
750,009	1945,95
750,19	1935,13
750,372	1978,89
750,553	1938,54
750,734	1920,11
750,915	1790,12
751,096	1942,34
751,278	1869,54
751,459	1942,34
751,64	1782,91
751,821	1890,77
752,002	1771,19
752,183	1819,86
752,364	1789,12
752,546	1826,47
752,727	1749,46
752,908	1807,75
753,089	1728,53
753,27	1795,03
753,451	1763,68
753,632	1750,76
753,813	1667,64
753,994	1708,6
754,175	1691,68
754,356	1752,77
754,536	1698,89
754,717	1647,91
754,898	1728,53
755,079	1754,27
755,26	1705,4
755,441	1756,47
755,622	1686,47
755,802	1726,83
755,983	1636,7
756,164	1686,97
756,345	1681,26
756,526	1684,17
756,706	1663,54
756,887	1673,25
757,068	1673,75
757,248	1703,09
757,429	1654,82
757,61	1647,81
757,79	1660,63
757,971	1657,93
758,152	1635,6
758,332	1597,34
758,513	1676,25
758,693	1660,53
758,874	1686,87
759,055	1721,72
759,235	1650,52
759,416	1638,7
759,596	1601,75
759,777	1743,35
759,957	1581,42
760,137	1709,2
760,318	1673,45
760,498	1701,89
760,679	1668,24
760,859	1668,74
761,039	1716,41
761,22	1692,08
761,4	1678,16
761,581	1754,27
761,761	1678,26
761,941	1744,65
762,121	1666,64
762,302	1636,2
762,482	1676,76
762,662	1599,74
762,842	1630,69
763,023	1662,03
763,203	1571
763,383	1643,71
763,563	1617,27
763,743	1695,38
763,923	1609,86
764,104	1693,98
764,284	1576,71
764,464	1626,78
764,644	1558,58
764,824	1612,26
765,004	1514,92
765,184	1607,56
765,364	1505,71
765,544	1538,36
765,724	1511,32
765,904	1556,08
766,084	1529,24
766,264	1545,47
766,444	1558,68
766,624	1535,65
766,804	1443,42
766,983	1568,1
767,163	1562,99
767,343	1477,27
767,523	1514,82
767,703	1556,88
767,883	1527,74
768,062	1417,28
768,242	1433,7
768,422	1464,45
768,602	1454,73
768,781	1415,08
768,961	1381,13
769,141	1413,97
769,32	1404,46
769,5	1429,1
769,68	1366,31
769,859	1379,22
770,039	1396,75
770,219	1351,18
770,398	1267,76
770,578	1365,2
770,757	1318,54
770,937	1348,28
771,116	1249,44
771,296	1317,03
771,475	1265,36
771,655	1220,19
771,834	1293,1
772,014	1280,38
772,193	1331,05
772,373	1277,08
772,552	1208,48
772,731	1214,49
772,911	1221,9
773,09	1271,87
773,269	1200,87
773,449	1238,32
773,628	1247,23
773,807	1170,82
773,987	1159,91
774,166	1149,59
774,345	1162,61
774,524	1150,69
774,704	1094,41
774,883	1123,75
775,062	1110,43
775,241	1157,7
775,42	1097,02
775,6	1125,26
775,779	1029,22
775,958	1074,78
776,137	1102,42
776,316	1095,21
776,495	1079,19
776,674	1008,69
776,853	995,97
777,032	1028,02
777,211	1014,5
777,39	965,72
777,569	970,13
777,748	987,96
777,927	950,3
778,106	958,61
778,285	952,41
778,464	933,38
778,643	965,62
778,822	926,17
779	991,76
779,179	920,76
779,358	937,68
779,537	921,46
779,716	861,07
779,894	933,48
780,073	927,17
780,252	869,59
780,431	854,06
780,609	872,39
780,788	907,94
780,967	814,91
781,145	896,12
781,324	870,69
781,503	765,63
781,681	828,43
781,86	839,44
782,039	837,74
782,217	767,54
782,396	798,28
782,574	785,86
782,753	863,18
782,931	821,12
783,11	818,41
783,288	759,53
783,467	843,15
783,645	657,48
783,824	791,57
784,002	662,18
784,18	695,53
784,359	755,42
784,537	692,53
784,716	741,7
784,894	789,67
785,072	670
785,251	753,02
785,429	652,57
785,607	723,67
785,785	683,42
785,964	721,27
786,142	552,83
786,32	718,07
786,498	641,15
786,677	704,65
786,855	679,51
787,033	714,26
787,211	635,95
787,389	699,44
787,567	686,12
787,745	656,98
787,923	708,85
788,102	692,83
788,28	674,2
788,458	620,52
788,636	619,62
788,814	653,47
788,992	676,41
789,17	670,6
789,348	679,21
789,526	683,42
789,703	610,51
789,881	635,65
790,059	595,39
790,237	614,32
790,415	557,23
790,593	625,93
790,771	592,08
790,949	581,77
791,126	641,15
791,304	574,86
791,482	537,2
791,66	577,86
791,837	562,54
792,015	592,18
792,193	548,02
792,371	634,75
792,548	594,39
792,726	571,85
792,904	494,64
793,081	528,69
793,259	468,7
793,436	610,91
793,614	519,68
793,792	576,46
793,969	613,71
794,147	565,24
794,324	632,44
794,502	575,16
794,679	456,29
794,857	553,53
795,034	561,34
795,212	462,9
795,389	525,49
795,567	528,59
795,744	537,4
795,921	497,35
796,099	472,91
796,276	477,02
796,453	505,66
796,631	469,81
796,808	424,74
796,985	450,48
797,163	524,29
797,34	446,97
797,517	488,43
797,694	463,7
797,872	454,38
798,049	448,27
798,226	508,36
798,403	492,14
798,58	500,15
798,757	422,54
798,935	474,31
799,112	433,65
799,289	395,4
799,466	420,94
799,643	475,11
799,82	466,3
799,997	476,02
800,174	466,6
800,351	394,8
800,528	489,03
800,705	436,86
800,882	433,25
801,059	418,83
801,236	440,66
801,413	386,99
801,589	415,03
801,766	405,91
801,943	410,32
802,12	460,89
802,297	434,76
802,474	377,77
802,651	388,09
802,827	414,43
803,004	405,51
803,181	433,65
803,358	445,17
803,534	366,66
803,711	355,74
803,888	336,31
804,064	357,64
804,241	321,69
804,418	334,41
804,594	359,45
804,771	297,56
804,947	442,87
805,124	334,91
805,301	404,71
805,477	397,7
805,654	376,37
805,83	284,64
806,007	343,52
806,183	371,36
806,36	361,45
806,536	335,41
806,712	313,28
806,889	323,49
807,065	307,87
807,242	340,12
807,418	349,73
807,594	348,53
807,771	339,02
807,947	282,73
808,123	354,24
808,3	345,73
808,476	314,78
808,652	281,13
808,829	300,36
809,005	380,08
809,181	278,53
809,357	334,51
809,533	283,14
809,71	350,63
809,886	311,38
810,062	322,69
810,238	277,13
810,414	345,23
810,59	265,71
810,766	290,85
810,942	319,69
811,118	304,27
811,294	285,54
811,47	286,54
811,646	359,95
811,822	273,42
811,998	353,24
812,174	270,52
812,35	293,95
812,526	273,42
812,702	246,98
812,878	277,43
813,054	293,25
813,23	209,33
813,405	319,69
813,581	269,62
813,757	293,05
813,933	331
814,109	230,76
814,284	386,69
814,46	259,5
814,636	238,17
814,812	215,54
814,987	223,15
815,163	281,33
815,339	255,7
815,514	210,13
815,69	236,27
815,866	241,58
816,041	258,7
816,217	307,37
816,392	266,61
816,568	261,4
816,743	295,95
816,919	258,4
817,094	280,03
817,27	223,45
817,445	287,04
817,621	215,14
817,796	280,33
817,972	220,85
818,147	207,93
818,322	227,76
818,498	316,28
818,673	255,3
818,849	202,42
819,024	178,08
819,199	259,7
819,375	258,5
819,55	257
819,725	258,2
819,9	214,04
820,076	294,55
820,251	182,49
820,426	295,65
820,601	288,64
820,776	228,66
820,952	243,98
821,127	232,76
821,302	277,63
821,477	201,22
821,652	236,17
821,827	214,84
822,002	204,52
822,177	190,9
822,352	201,92
822,527	218,64
822,702	177,88
822,877	219,34
823,052	189,5
823,227	212,03
823,402	195,31
823,577	248,59
823,752	218,14
823,927	152,95
824,102	273,42
824,277	257,5
824,451	206,72
824,626	168,87
824,801	186,5
824,976	288,94
825,151	183,69
825,325	234,77
825,5	192,1
825,675	226,25
825,85	239,57
826,024	231,16
826,199	210,63
826,374	182,89
826,548	221,25
826,723	228,96
826,897	210,93
827,072	158,76
827,247	176,08
827,421	141,83
827,596	170,17
827,77	187
827,945	216,04
828,119	183,39
828,294	222,75
828,468	146,04
828,643	192,5
828,817	170,57
828,992	176,38
829,166	119,6
829,34	231,76
829,515	182,39
829,689	207,43
829,864	159,26
830,038	191
830,212	202,32
830,386	124,31
830,561	221,95
830,735	146,04
830,909	216,74
831,084	126,61
831,258	183,39
831,432	149,94
831,606	168,07
831,78	157,95
831,954	237,17
832,129	190
832,303	134,12
832,477	142,03
832,651	196,21
832,825	116,29
832,999	208,83
833,173	97,67
833,347	134,22
833,521	145,24
833,695	189,1
833,869	157,35
834,043	138,83
834,217	115,19
834,391	128,31
834,565	136,82
834,739	159,46
834,913	108,68
835,086	124,71
835,26	104,88
835,434	116,79
835,608	167,77
835,782	166,87
835,956	111,59
836,129	105,98
836,303	197,11
836,477	130,21
836,651	144,13
836,824	174,48
836,998	96,77
837,172	133,42
837,345	194,21
837,519	106,08
837,693	147,24
837,866	116,79
838,04	91,76
838,213	73,73
838,387	105,68
838,56	90,06
838,734	122,4
838,907	187,2
839,081	139,03
839,254	137,12
839,428	94,26
839,601	161,76
839,775	29,97
839,948	122,3
840,122	148,54
840,295	131,22
840,468	89,86
840,642	124,61
840,815	84,45
840,988	70,33
841,162	88,55
841,335	143,43
841,508	152,95
841,682	83,05
841,855	126,81
842,028	142,23
842,201	124,81
842,374	88,25
842,548	157,75
842,721	137,52
842,894	111,69
843,067	16,45
843,24	41,28
843,413	98,07
843,586	115,69
843,759	104,68
843,932	148,54
844,105	85,75
844,278	74,43
844,451	128,81
844,624	132,52
844,797	101,37
844,97	106,38
845,143	92,86
845,316	145,44
845,489	51,8
845,662	60,51
845,835	154,45
846,008	73,93
846,18	70,53
846,353	156,15
846,526	137,62
846,699	108,88
846,872	127,41
847,044	115,59
847,217	49,1
847,39	84,05
847,563	113,29
847,735	100,77
847,908	121
848,081	66,92
848,253	54,7
848,426	34,37
848,598	145,34
848,771	119,3
848,944	-3,88
849,116	39,38
849,289	50
849,461	77,04
849,634	118,8
849,806	72,63
849,979	88,35
850,151	145,74
850,324	176,18
850,496	105,68
850,668	47,89
850,841	54,1
851,013	116,39
851,186	65,62
851,358	56,91
851,53	104,58
851,703	82,04
851,875	65,02
852,047	67,72
852,219	20,35
852,392	107,88
852,564	109,38
852,736	14,95
852,908	23,46
853,081	114,69
853,253	87,85
853,425	84,95
853,597	103,68
853,769	66,82
853,941	103,78
854,113	65,42
854,285	108,78
854,457	98,77
854,63	71,83
854,802	140,33
854,974	69,63
855,146	111,79
855,318	143,53
855,489	77,04
855,661	122,5
855,833	55,61
856,005	109,48
856,177	-2,88
856,349	64,82
856,521	79,24
856,693	-7,49
856,865	21,46
857,036	172,68
857,208	83,45
857,38	45,49
857,552	35,98
857,723	84,55
857,895	32,67
858,067	42,39
858,239	69,33
858,41	-7,39
858,582	115,09
858,754	63,92
858,925	-34,02
859,097	100,17
859,268	88,65
859,44	51,4
859,612	47,29
859,783	-9,99
859,955	23,86
860,126	9,24
860,298	40,38
860,469	110,89
860,641	33,17
860,812	29,67
860,983	-5,18
861,155	66,22
861,326	51
861,498	58,01
861,669	59,21
861,84	92,26
862,012	92,96
862,183	92,76
862,354	116,99
862,526	32,77
862,697	96,87
862,868	34,68
863,039	35,88
863,211	-24,11
863,382	46,49
863,553	26,86
863,724	4,83
863,895	43,79
864,066	106,28
864,238	47,59
864,409	87,85
864,58	0,43
864,751	107,38
864,922	37,18
865,093	63,82
865,264	99,47
865,435	3,23
865,606	81,24
865,777	27,46
865,948	66,62
866,119	67,02
866,29	89,96
866,461	53
866,632	-4,08
866,802	45,89
866,973	35,98
867,144	23,06
867,315	57,81
867,486	65,42
867,657	68,92
867,827	88,65
867,998	80,44
868,169	9,04
868,34	102,67
868,51	56,61
868,681	79,24
868,852	39,98
869,022	95,86
869,193	108,88
869,364	56,91
869,534	17,15
869,705	52,3
869,875	34,78
870,046	23,86
870,217	44,99
870,387	24,56
870,558	118,7
870,728	65,52
870,899	40,08
871,069	17,25
871,239	94,26
871,41	45,79
871,58	63,52
871,751	53,1
871,921	41,28
872,091	21,26
872,262	58,81
872,432	100,77
872,602	-51,15
872,773	54,3
872,943	45,99
873,113	61,21
873,284	7,44
873,454	32,67
873,624	72,73
873,794	40,98
873,964	56,21
874,135	26,66
874,305	18,65
874,475	67,52
874,645	-3,68
874,815	55,21
874,985	40,18
875,155	25,46
875,325	3,83
875,495	20,96
875,665	45,79
875,835	30,97
876,005	30,07
876,175	29,17
876,345	26,66
876,515	11,54
876,685	95,86
876,855	87,55
877,025	22,06
877,195	-53,85
877,365	33,47
877,534	47,39
877,704	24,16
877,874	99,77
878,044	-9,69
878,214	86,35
878,383	41,08
878,553	77,74
878,723	29,77
878,892	71,13
879,062	42,49
879,232	52,2
879,401	30,37
879,571	37,78
879,741	-53,55
879,91	23,46
880,08	65,02
880,249	18,05
880,419	32,07
880,589	31,17
880,758	36,38
880,928	57,31
881,097	-11,19
881,267	61,91
881,436	28,67
881,605	77,74
881,775	-41,94
881,944	23,86
882,114	83,05
882,283	8,74
882,452	69,53
882,622	15,05
882,791	-18,7
882,96	18,35
883,13	82,54
883,299	60,91
883,468	22,56
883,637	-8,19
883,807	63,22
883,976	27,36
884,145	22,56
884,314	55,31
884,483	-16,2
884,652	32,07
884,822	43,89
884,991	6,73
885,16	36,18
885,329	57,01
885,498	23,26
885,667	71,23
885,836	41,08
886,005	-0,18
886,174	55,31
886,343	67,22
886,512	35,28
886,681	36,68
886,85	80,84
887,019	64,82
887,187	54,3
887,356	53,4
887,525	-17,3
887,694	24,96
887,863	8,34
888,032	9,14
888,2	50,8
888,369	-5,18
888,538	50,8
888,707	7,64
888,875	-23,41
889,044	-0,38
889,213	85,05
889,381	27,67
889,55	6,94
889,719	49,2
889,887	52,2
890,056	-42,24
890,224	70,13
890,393	-2,78
890,562	83,05
890,73	49,8
890,899	53,1
891,067	51,4
891,236	21,06
891,404	105,98
891,573	10,14
891,741	9,04
891,909	23,16
892,078	59,41
892,246	24,96
892,415	19,35
892,583	28,77
892,751	24,16
892,92	36,88
893,088	33,87
893,256	54,5
893,424	22,56
893,593	54,2
893,761	2,03
893,929	-34,12
894,097	41,18
894,265	18,75
894,434	54,7
894,602	84,65
894,77	33,97
894,938	77,44
895,106	64,02
895,274	51,9
895,442	26,26
895,61	93,56
895,778	-5,88
895,946	51,1
896,114	42,69
896,282	-14,5
896,45	34,07
896,618	66,12
896,786	48,9
896,954	53,3
897,122	46,99
897,29	6,13
897,458	23,36
897,625	56,11
897,793	75,33
897,961	75,23
898,129	-6,48
898,297	74,53
898,464	26,06
898,632	34,17
898,8	79,34
898,968	-13,79
899,135	72,93
899,303	-3,68
899,471	-9,99
899,638	53,8
899,806	38,78
899,973	37,88
900,141	81,84
900,309	26,66
900,476	23,86
900,644	92,46
900,811	10,94
900,979	75,83
901,146	52,2
901,314	42,49
901,481	17,45
901,649	45,79
901,816	24,76
901,983	34,07
902,151	21,96
