Data from Subt4__21__14-48-30-339.txt Node

Date: Thu Feb 19 14:48:30 CET 2026
User: Versuch 234
Spectrometer: USB4F05580
Trigger mode: 4
Integration Time (sec): 6,000000E-3
Scans to average: 20
Electric dark correction enabled: true
Nonlinearity correction enabled: false
Boxcar width: 0
XAxis mode: Wavelengths
Number of Pixels in Spectrum: 3648
>>>>>Begin Spectral Data<<<<<
197,409	110,13
197,623	110,13
197,837	110,13
198,051	169,02
198,265	126,86
198,479	-68,72
198,693	-16,05
198,907	-43,19
199,122	-0,63
199,336	-20,45
199,55	23,41
199,763	58,56
199,977	0,88
200,191	52,95
200,405	27,11
200,619	24,51
200,833	-38,38
201,047	24,61
201,261	63,17
201,475	50,85
201,689	36,13
201,903	21,31
202,117	-38,08
202,331	-23,96
202,545	3,78
202,758	17,6
202,972	-61,11
203,186	-92,26
203,4	39,33
203,614	17,8
203,828	-36,88
204,041	17,5
204,255	19,8
204,469	7,99
204,683	39,33
204,897	-10,24
205,11	34,83
205,324	4,58
205,538	-19,35
205,752	-6,53
205,965	83
206,179	30,72
206,393	-93,36
206,606	9,49
206,82	21,01
207,034	13,59
207,248	2,88
207,461	5,48
207,675	6,88
207,889	5,88
208,102	36,13
208,316	-32,67
208,529	-17,65
208,743	-5,23
208,957	19,8
209,17	-39,28
209,384	35,53
209,597	9,99
209,811	45,04
210,025	44,84
210,238	6,08
210,452	-8,64
210,665	42,34
210,879	15,9
211,092	-26,66
211,306	-8,74
211,519	-33,07
211,733	3,18
211,946	65,17
212,16	73,48
212,373	-12,44
212,587	-9,74
212,8	-24,66
213,014	-1,03
213,227	34,63
213,44	7,09
213,654	71,78
213,867	89,81
214,081	52,65
214,294	-19,25
214,507	27,62
214,721	46,14
214,934	30,12
215,148	-13,74
215,361	94,31
215,574	35,63
215,788	-101,67
216,001	91,31
216,214	-14,75
216,428	12,69
216,641	10,39
216,854	9,59
217,067	19,3
217,281	40,53
217,494	32,62
217,707	54,35
217,92	-60,71
218,134	44,94
218,347	78,79
218,56	43,84
218,773	-50,7
218,986	65,97
219,2	27,01
219,413	5,58
219,626	-17,85
219,839	64,27
220,052	49,65
220,265	-21,86
220,479	41,54
220,692	32,82
220,905	-7,74
221,118	23,31
221,331	-24,16
221,544	15,8
221,757	30,22
221,97	52,05
222,183	-80,24
222,396	27,51
222,609	-2,03
222,822	-69,33
223,035	18,2
223,249	9,59
223,462	13,39
223,675	-54,3
223,887	21,51
224,1	53,75
224,313	46,34
224,526	45,34
224,739	-8,14
224,952	57,06
225,165	8,59
225,378	3,08
225,591	87,8
225,804	-20,76
226,017	55,86
226,23	-31,17
226,443	0,48
226,656	-12,74
226,868	-37,78
227,081	57,16
227,294	-23,76
227,507	11,19
227,72	-29,77
227,933	50,65
228,145	13,59
228,358	-15,15
228,571	12,59
228,784	-26,16
228,997	-56,41
229,209	42,74
229,422	10,39
229,635	44,84
229,848	5,58
230,06	-70,93
230,273	-55,51
230,486	24,71
230,698	-61,31
230,911	-10,64
231,124	-10,84
231,336	-52,2
231,549	13,39
231,762	43,34
231,974	-43,09
232,187	-56,91
232,4	48,45
232,612	-13,74
232,825	16,5
233,038	2,18
233,25	26,11
233,463	1,68
233,675	0,28
233,888	21,41
234,1	96,31
234,313	37,63
234,526	37,83
234,738	-24,06
234,951	-23,86
235,163	-59,81
235,376	10,09
235,588	-88,05
235,801	-20,96
236,013	-78,04
236,226	34,83
236,438	8,09
236,65	38,53
236,863	-43,89
237,075	92,71
237,288	-39,18
237,5	-63,52
237,713	-35,38
237,925	-47,19
238,137	-14,95
238,35	19,1
238,562	-16,95
238,774	83,7
238,987	111,74
239,199	7,29
239,411	10,79
239,624	33,82
239,836	24,91
240,048	-13,24
240,261	59,66
240,473	-12,04
240,685	22,81
240,897	-38,28
241,11	-2,83
241,322	23,61
241,534	2,18
241,746	-5,53
241,959	75,38
242,171	-14,05
242,383	-6,33
242,595	-53,3
242,807	-26,16
243,02	22,51
243,232	26,11
243,444	-25,96
243,656	45,54
243,868	4,58
244,08	-67,62
244,293	-59,31
244,505	-3,23
244,717	7,19
244,929	-32,67
245,141	-21,16
245,353	-21,06
245,565	35,43
245,777	-33,37
245,989	-11,84
246,201	-57,21
246,413	28,22
246,625	-43,79
246,837	-28,47
247,049	1,18
247,261	80,19
247,473	-1,43
247,685	36,53
247,897	30,92
248,109	-63,32
248,321	21,41
248,533	-94,36
248,745	-47,29
248,957	9,39
249,169	-47,19
249,381	43,14
249,593	-16,85
249,804	31,32
250,016	25,21
250,228	-23,96
250,44	45,94
250,652	-13,64
250,864	27,51
251,075	-31,87
251,287	-26,26
251,499	54,45
251,711	18,2
251,923	-13,85
252,134	11,89
252,346	-24,26
252,558	29,22
252,77	-25,56
252,982	-15,75
253,193	12,69
253,405	-1,03
253,617	15,6
253,828	-54,9
254,04	59,86
254,252	92,81
254,463	15,8
254,675	-13,95
254,887	-63,82
255,098	-3,33
255,31	-20,96
255,522	60,86
255,733	-4,13
255,945	55,05
256,157	-9,64
256,368	-17,35
256,58	43,94
256,791	9,79
257,003	57,46
257,214	39,33
257,426	39,73
257,637	-7,04
257,849	-0,43
258,061	47,24
258,272	29,32
258,484	29,92
258,695	7,19
258,907	9,49
259,118	29,02
259,329	-45,49
259,541	24,61
259,752	39,33
259,964	70,78
260,175	-35,78
260,387	-88,05
260,598	19,2
260,809	18,3
261,021	-23,76
261,232	17,6
261,444	-5,13
261,655	43,34
261,866	-24,16
262,078	8,29
262,289	-24,46
262,5	-9,74
262,712	-25,06
262,923	-28,97
263,134	-54,1
263,345	48,65
263,557	-77,54
263,768	-51,5
263,979	-21,46
264,191	-26,56
264,402	-80,34
264,613	49,55
264,824	-2,83
265,035	-28,57
265,247	45,14
265,458	-66,12
265,669	-19,15
265,88	0,68
266,091	-8,24
266,302	20,81
266,514	-34,78
266,725	-36,68
266,936	6,99
267,147	-61,91
267,358	-26,06
267,569	58,26
267,78	39,53
267,991	-27,36
268,202	46,74
268,414	3,88
268,625	61,56
268,836	-43,89
269,047	71,88
269,258	-50,6
269,469	-33,07
269,68	20,4
269,891	-28,07
270,102	58,56
270,313	-3,83
270,524	1,18
270,735	4,88
270,945	20,5
271,156	57,16
271,367	30,22
271,578	47,84
271,789	-58,31
272	49,05
272,211	41,23
272,422	-27,77
272,633	58,46
272,844	-71,23
273,054	-48,3
273,265	3,08
273,476	-36,98
273,687	-26,16
273,898	-0,63
274,109	16,9
274,319	-29,17
274,53	75,78
274,741	45,74
274,952	-15,35
275,162	62,27
275,373	0,18
275,584	-33,37
275,795	-41,08
276,005	-11,74
276,216	-11,34
276,427	17,2
276,637	-13,44
276,848	-10,44
277,059	-66,02
277,269	-42,79
277,48	-24,46
277,691	34,22
277,901	-24,16
278,112	-31,57
278,323	-32,17
278,533	53,95
278,744	6,08
278,954	-43,99
279,165	5,58
279,376	15,4
279,586	-45,39
279,797	6,99
280,007	-22,76
280,218	51,55
280,428	56,66
280,639	60,86
280,849	-15,15
281,06	-29,77
281,27	-20,35
281,481	-58,91
281,691	7,79
281,902	-34,68
282,112	-18,15
282,322	84,3
282,533	-10,54
282,743	13,49
282,954	8,79
283,164	-52,5
283,374	41,64
283,585	63,57
283,795	-65,32
284,006	10,99
284,216	7,09
284,426	-6,43
284,637	-75,53
284,847	-34,78
285,057	45,14
285,268	35,83
285,478	-5,63
285,688	47,64
285,898	-26,46
286,109	17,8
286,319	-59,71
286,529	33,02
286,739	-23,46
286,95	57,06
287,16	11,49
287,37	70,98
287,58	-16,85
287,79	24,61
288,001	26,91
288,211	27,01
288,421	16,7
288,631	40,03
288,841	6,88
289,051	-16,55
289,261	35,13
289,471	-83,85
289,682	-11,54
289,892	32,02
290,102	-2,83
290,312	-29,57
290,522	0,78
290,732	31,42
290,942	21,31
291,152	18
291,362	26,81
291,572	-75,23
291,782	9,29
291,992	66,47
292,202	11,39
292,412	-81,34
292,622	11,09
292,832	48,24
293,042	-2,53
293,252	15,6
293,462	26,21
293,672	-24,16
293,881	20,6
294,091	-3,03
294,301	-22,56
294,511	23,11
294,721	69,88
294,931	79,79
295,141	-13,64
295,35	18,6
295,56	-28,67
295,77	-10,84
295,98	-44,59
296,19	40,23
296,4	18,6
296,609	-23,66
296,819	27,72
297,029	30,32
297,239	-12,64
297,448	45,94
297,658	-14,25
297,868	48,45
298,077	-30,17
298,287	-1,63
298,497	-17,05
298,706	41,74
298,916	-42,39
299,126	32,42
299,335	26,31
299,545	-20,76
299,755	-16,05
299,964	25,91
300,174	108,73
300,384	82,39
300,593	53,15
300,803	-4,43
301,012	14,5
301,222	29,72
301,431	-35,58
301,641	-5,93
301,851	29,42
302,06	57,36
302,27	-21,16
302,479	30,32
302,689	31,32
302,898	-26,06
303,107	11,79
303,317	27,92
303,526	60,66
303,736	71,08
303,945	32,72
304,155	-13,24
304,364	84,1
304,574	31,52
304,783	-18,15
304,992	7,79
305,202	-16,45
305,411	-19,95
305,62	60,46
305,83	65,47
306,039	4,98
306,248	55,36
306,458	-54,5
306,667	-76,64
306,876	39,43
307,086	18
307,295	-9,74
307,504	18,9
307,713	0,48
307,923	-110,49
308,132	29,72
308,341	-32,07
308,55	-3,63
308,76	-30,17
308,969	29,12
309,178	56,36
309,387	39,53
309,596	-24,76
309,805	22,41
310,015	17,9
310,224	-20,86
310,433	-36,18
310,642	-27,77
310,851	-7,14
311,06	-1,83
311,269	2,88
311,478	-17,75
311,687	-109,88
311,896	10,99
312,106	41,13
312,315	19,1
312,524	104,53
312,733	141,38
312,942	-15,25
313,151	82,09
313,36	-3,53
313,569	30,72
313,778	-16,45
313,987	-50,2
314,195	39,13
314,404	35,33
314,613	-14,75
314,822	54,65
315,031	-37,28
315,24	-8,44
315,449	98,52
315,658	-25,06
315,867	-47,89
316,076	-40,78
316,284	45,24
316,493	66,07
316,702	34,12
316,911	27,21
317,12	-7,54
317,329	77,59
317,537	88,7
317,746	-90,76
317,955	52,05
318,164	29,02
318,372	3,08
318,581	86,8
318,79	-34,37
318,999	-14,15
319,207	16,8
319,416	-87,85
319,625	24,61
319,833	8,79
320,042	63,47
320,251	21,71
320,459	-41,79
320,668	-8,94
320,877	35,03
321,085	-94,56
321,294	-73,93
321,502	34,93
321,711	-28,47
321,92	22,81
322,128	-52,6
322,337	-24,76
322,545	64,37
322,754	16,9
322,962	57,36
323,171	-19,85
323,379	-28,07
323,588	31,92
323,796	-27,16
324,005	18,6
324,213	41,54
324,422	66,87
324,63	-68,22
324,839	-11,64
325,047	-19,35
325,256	-7,24
325,464	18,3
325,672	44,44
325,881	-24,86
326,089	34,22
326,297	9,49
326,506	-56,91
326,714	48,24
326,923	19,2
327,131	2,68
327,339	20,3
327,548	-30,27
327,756	-36,08
327,964	-30,27
328,172	-17,55
328,381	35,43
328,589	29,42
328,797	-23,96
329,005	-18,75
329,214	-51,3
329,422	28,62
329,63	-13,74
329,838	100,72
330,046	-39,58
330,255	18,3
330,463	18,6
330,671	-16,55
330,879	75,58
331,087	14,7
331,295	18,2
331,503	19,2
331,712	-18,95
331,92	9,79
332,128	40,63
332,336	41,74
332,544	-74,73
332,752	0,68
332,96	-13,04
333,168	-13,64
333,376	-112,99
333,584	-16,05
333,792	31,12
334	30,42
334,208	-28,67
334,416	65,87
334,624	3,98
334,832	-22,26
335,04	-0,33
335,248	-2,43
335,456	5,58
335,664	-48,8
335,872	-16,15
336,08	-83,85
336,287	-44,59
336,495	75,48
336,703	25,41
336,911	71,38
337,119	-3,13
337,327	39,83
337,535	27,41
337,742	-24,66
337,95	22,21
338,158	15,7
338,366	-43,29
338,573	-5,03
338,781	5,38
338,989	66,47
339,197	49,75
339,404	-35,68
339,612	3,68
339,82	-38,68
340,028	-27,16
340,235	70,58
340,443	16,6
340,651	41,84
340,858	-107,38
341,066	-35,38
341,274	2,78
341,481	94,51
341,689	80,99
341,896	-22,16
342,104	75,68
342,312	17,1
342,519	56,96
342,727	24,91
342,934	16,6
343,142	-9,54
343,349	-42,69
343,557	117,65
343,765	-54,7
343,972	49,35
344,18	-23,66
344,387	39,03
344,594	51,35
344,802	122,25
345,009	-7,74
345,217	2,28
345,424	75,08
345,632	-32,37
345,839	25,51
346,047	17,3
346,254	-15,05
346,461	25,21
346,669	0,28
346,876	21,91
347,083	-7,84
347,291	11,59
347,498	15,6
347,705	44,64
347,913	-18,85
348,12	13,09
348,327	8,79
348,535	-33,77
348,742	-1,23
348,949	-30,67
349,156	-25,96
349,364	-13,85
349,571	27,01
349,778	30,12
349,985	-65,42
350,192	16,9
350,4	27,62
350,607	46,14
350,814	40,33
351,021	-18,25
351,228	17
351,435	56,06
351,643	12,49
351,85	37,83
352,057	55,96
352,264	60,76
352,471	27,72
352,678	56,86
352,885	71,18
353,092	-14,95
353,299	-17,35
353,506	15,3
353,713	31,22
353,92	-33,87
354,127	25,81
354,334	-7,24
354,541	-10,24
354,748	30,32
354,955	74,88
355,162	70,88
355,369	16,7
355,576	45,24
355,783	62,17
355,99	13,09
356,197	-36,08
356,404	11,09
356,611	-15,15
356,817	-53
357,024	14,7
357,231	60,36
357,438	-3,73
357,645	12,79
357,852	19,3
358,058	33,12
358,265	17,6
358,472	17
358,679	29,22
358,885	6,78
359,092	58,56
359,299	-63,72
359,506	-27,77
359,712	-17,25
359,919	-14,45
360,126	-17,95
360,333	-51,8
360,539	22,71
360,746	10,89
360,953	21,31
361,159	-54,7
361,366	-61,71
361,572	25,71
361,779	4,98
361,986	-4,03
362,192	-12,14
362,399	48,75
362,605	-35,48
362,812	-29,37
363,019	-29,67
363,225	-15,85
363,432	46,14
363,638	-50,1
363,845	-29,27
364,051	76,39
364,258	0,98
364,464	70,28
364,671	-30,47
364,877	72,18
365,084	51,45
365,29	-6,73
365,496	78,39
365,703	-25,76
365,909	-16,95
366,116	42,54
366,322	-14,75
366,528	-1,33
366,735	-6,94
366,941	-29,17
367,147	4,88
367,354	103,63
367,56	24,31
367,766	44,54
367,973	57,96
368,179	-8,44
368,385	-11,94
368,592	70,98
368,798	38,03
369,004	0,68
369,21	12,89
369,417	75,58
369,623	-36,98
369,829	26,31
370,035	40,03
370,241	62,57
370,448	-17,25
370,654	22,61
370,86	-21,66
371,066	52,85
371,272	15,9
371,478	46,24
371,684	-19,85
371,891	70,08
372,097	37,03
372,303	-66,82
372,509	9,99
372,715	-19,25
372,921	15,4
373,127	42,64
373,333	63,47
373,539	-24,36
373,745	27,62
373,951	59,66
374,157	-28,37
374,363	23,71
374,569	-32,97
374,775	10,39
374,981	-26,46
375,187	-59,11
375,393	-2,93
375,599	43,64
375,804	20
376,01	18,9
376,216	13,59
376,422	-3,53
376,628	25,71
376,834	49,85
377,04	18,4
377,246	4,98
377,451	-25,46
377,657	-44,59
377,863	25,01
378,069	-42,99
378,274	44,74
378,48	58,16
378,686	39,83
378,892	24,51
379,097	14,1
379,303	36,03
379,509	12,69
379,715	57,16
379,92	53,95
380,126	62,17
380,332	-57,51
380,537	-23,96
380,743	89,6
380,949	8,19
381,154	-14,85
381,36	-3,03
381,565	11,59
381,771	41,94
381,977	-5,53
382,182	-17,95
382,388	36,53
382,593	18,3
382,799	-1,93
383,004	-45,79
383,21	22,11
383,415	-20,45
383,621	-40,18
383,826	-19,75
384,032	15,1
384,237	-34,98
384,443	4,68
384,648	-44,69
384,854	49,15
385,059	-32,97
385,265	-45,19
385,47	-17,35
385,675	33,72
385,881	54,55
386,086	-39,68
386,291	-21,46
386,497	35,73
386,702	-12,74
386,907	-0,63
387,113	-33,77
387,318	36,83
387,523	-40,78
387,729	1,68
387,934	36,53
388,139	48,65
388,344	-2,03
388,55	31,32
388,755	-15,25
388,96	63,17
389,165	97,42
389,371	59,86
389,576	-19,75
389,781	118,65
389,986	-14,05
390,191	36,33
390,396	-30,47
390,601	41,44
390,807	12,69
391,012	29,92
391,217	27,72
391,422	19,1
391,627	37,33
391,832	-96,97
392,037	92,11
392,242	101,62
392,447	25,01
392,652	-55,41
392,857	25,71
393,062	-37,48
393,267	43,74
393,472	6,78
393,677	-32,37
393,882	14,6
394,087	37,33
394,292	58,56
394,497	28,82
394,702	6,08
394,907	67,87
395,112	2,98
395,317	11,59
395,521	-6,03
395,726	-15,85
395,931	-5,13
396,136	33,12
396,341	-76,44
396,546	32,52
396,75	-22,26
396,955	-20,05
397,16	-47,09
397,365	3,28
397,57	-2,33
397,774	-14,75
397,979	13,59
398,184	-34,58
398,389	67,37
398,593	43,94
398,798	-21,06
399,003	4,08
399,207	-8,74
399,412	-9,44
399,617	-34,47
399,821	-24,26
400,026	112,74
400,231	60,36
400,435	9,19
400,64	-12,44
400,844	-17,75
401,049	0,48
401,254	-28,37
401,458	1,68
401,663	-35,18
401,867	14,4
402,072	16,7
402,276	19,1
402,481	-7,34
402,685	37,13
402,89	7,69
403,094	55,96
403,299	28,12
403,503	38,43
403,708	-65,72
403,912	-27,16
404,116	-50,5
404,321	91,71
404,525	5,18
404,73	50,05
404,934	34,53
405,138	2,58
405,343	112,44
405,547	17,7
405,751	17,9
405,956	-15,15
406,16	16,2
406,364	50,95
406,569	26,41
406,773	-31,07
406,977	-52,3
407,181	-83,45
407,386	41,74
407,59	-21,86
407,794	2,88
407,998	-14,75
408,202	-14,25
408,407	3,68
408,611	-26,86
408,815	48,14
409,019	-42,69
409,223	52,15
409,427	-2,83
409,632	79,29
409,836	32,22
410,04	-15,05
410,244	-2,93
410,448	-20,45
410,652	62,37
410,856	-60,71
411,06	32,72
411,264	40,43
411,468	-4,43
411,672	1,58
411,876	78,99
412,08	29,22
412,284	4,78
412,488	-6,83
412,692	61,96
412,896	-3,93
413,1	16,2
413,304	-3,63
413,508	29,62
413,712	14,7
413,916	1,08
414,12	52,35
414,323	10,09
414,527	25,01
414,731	-54,7
414,935	80,39
415,139	93,21
415,343	54,45
415,546	53,45
415,75	-2,43
415,954	74,18
416,158	-44,49
416,361	-36,48
416,565	-34,37
416,769	12,99
416,973	10,29
417,176	37,73
417,38	-70,03
417,584	-65,22
417,788	66,57
417,991	27,51
418,195	-27,56
418,398	40,43
418,602	0,18
418,806	-4,03
419,009	-12,94
419,213	76,19
419,417	41,03
419,62	16,5
419,824	79,29
420,027	-17,65
420,231	-17,35
420,434	-29,17
420,638	-31,07
420,841	84,1
421,045	23,31
421,248	45,64
421,452	-1,03
421,655	-0,73
421,859	60,46
422,062	-17,65
422,266	57,76
422,469	-1,33
422,673	9,29
422,876	-33,87
423,079	-21,76
423,283	2,18
423,486	0,18
423,689	-46,29
423,893	47,04
424,096	130,46
424,299	79,09
424,503	-17,65
424,706	7,69
424,909	13,9
425,113	-7,04
425,316	28,12
425,519	68,07
425,722	76,69
425,926	1,58
426,129	21,01
426,332	7,39
426,535	25,41
426,739	-17,55
426,942	-37,78
427,145	-31,47
427,348	6,88
427,551	9,69
427,754	30,52
427,957	10,49
428,161	-0,83
428,364	18,2
428,567	-62,32
428,77	-12,14
428,973	-4,23
429,176	14,7
429,379	17,1
429,582	-68,02
429,785	29,32
429,988	-7,94
430,191	76,39
430,394	-19,25
430,597	-32,07
430,8	70,88
431,003	5,08
431,206	-19,85
431,409	-9,44
431,612	-45,59
431,815	49,25
432,018	71,18
432,221	-12,14
432,423	56,96
432,626	-56,21
432,829	29,52
433,032	105,33
433,235	66,87
433,438	-47,99
433,64	-73,83
433,843	75,38
434,046	35,23
434,249	13,09
434,452	-11,84
434,654	-73,33
434,857	-31,07
435,06	-50,6
435,263	58,96
435,465	-18,65
435,668	-62,52
435,871	129,76
436,073	19,3
436,276	-7,14
436,479	-25,56
436,681	17,8
436,884	39,73
437,087	27,92
437,289	46,94
437,492	4,88
437,694	50,25
437,897	15,9
438,1	62,87
438,302	-6,83
438,505	42,24
438,707	-0,83
438,91	11,19
439,112	52,05
439,315	38,33
439,517	70,58
439,72	-11,44
439,922	-24,76
440,125	-3,33
440,327	6,18
440,529	-5,03
440,732	-11,04
440,934	24,01
441,137	-7,54
441,339	-15,25
441,541	-67,52
441,744	61,86
441,946	-32,17
442,148	35,33
442,351	30,52
442,553	0,78
442,755	-29,27
442,958	-7,44
443,16	-14,95
443,362	-34,17
443,565	18,6
443,767	19
443,969	-37,28
444,171	41,64
444,373	35,23
444,576	-7,24
444,778	-9,24
444,98	-60,31
445,182	70,78
445,384	-53,4
445,586	61,06
445,789	26,51
445,991	23,11
446,193	62,47
446,395	3,88
446,597	-13,85
446,799	51,85
447,001	-0,53
447,203	-21,26
447,405	-26,56
447,607	30,62
447,809	39,33
448,011	-60,31
448,213	17,8
448,415	-80,34
448,617	66,57
448,819	-51,3
449,021	-66,02
449,223	108,13
449,425	76,49
449,627	37,73
449,829	-58,81
450,031	-6,13
450,233	52,75
450,435	75,28
450,636	4,68
450,838	31,02
451,04	15,5
451,242	7,99
451,444	-4,03
451,646	-0,93
451,847	-11,14
452,049	54,35
452,251	29,12
452,453	33,92
452,654	6,99
452,856	60,96
453,058	12,99
453,26	-4,03
453,461	-3,43
453,663	-56,21
453,865	-1,43
454,066	-2,43
454,268	-0,03
454,47	62,97
454,671	22,51
454,873	-9,04
455,074	-50,1
455,276	-2,73
455,478	28,02
455,679	74,28
455,881	62,77
456,082	29,72
456,284	21,61
456,485	36,33
456,687	46,24
456,888	-44,29
457,09	3,38
457,291	45,24
457,493	-78,34
457,694	-6,53
457,896	-27,56
458,097	35,23
458,299	-9,64
458,5	16,4
458,701	-40,88
458,903	93,81
459,104	4,98
459,306	52,45
459,507	65,77
459,708	24,61
459,91	47,24
460,111	19,8
460,312	-11,64
460,514	37,23
460,715	61,86
460,916	-4,73
461,117	28,82
461,319	-26,96
461,52	-40,88
461,721	-19,45
461,922	-18,25
462,124	50,25
462,325	-3,53
462,526	-23,56
462,727	-6,83
462,928	55,26
463,129	34,02
463,331	15,9
463,532	-18,25
463,733	5,48
463,934	0,28
464,135	2,88
464,336	17,7
464,537	2,28
464,738	-21,96
464,939	-15,45
465,14	16,6
465,341	75,48
465,542	4,68
465,743	61,76
465,944	40,33
466,145	4,58
466,346	-15,55
466,547	94,71
466,748	-36,78
466,949	12,99
467,15	29,92
467,351	3,78
467,552	4,48
467,753	19,8
467,953	19,4
468,154	6,68
468,355	43,14
468,556	-95,36
468,757	-21,96
468,958	-63,12
469,158	-5,53
469,359	36,63
469,56	-4,23
469,761	60,06
469,962	36,23
470,162	-6,03
470,363	-27,56
470,564	53,25
470,764	-23,36
470,965	23,91
471,166	25,91
471,366	-0,83
471,567	-159,46
471,768	-29,67
471,968	7,59
472,169	19,3
472,37	21,71
472,57	21,61
472,771	8,69
472,971	-32,07
473,172	-20,05
473,373	-16,55
473,573	-16,15
473,774	42,84
473,974	63,87
474,175	-1,53
474,375	-39,28
474,576	65,07
474,776	-0,43
474,977	16,9
475,177	75,18
475,377	-14,05
475,578	-78,24
475,778	18,8
475,979	19,3
476,179	-31,17
476,379	42,84
476,58	5,18
476,78	37,63
476,981	60,16
477,181	3,98
477,381	33,02
477,582	21,41
477,782	3,28
477,982	32,82
478,182	41,03
478,383	93,31
478,583	70,98
478,783	-31,27
478,983	12,19
479,184	27,41
479,384	-63,52
479,584	-1,03
479,784	87,4
479,984	134,37
480,184	-70,63
480,385	-1,33
480,585	67,67
480,785	6,08
480,985	1,18
481,185	50,35
481,385	62,87
481,585	97,62
481,785	90,71
481,985	-51,5
482,185	39,13
482,385	66,97
482,585	7,29
482,785	13,19
482,985	40,03
483,185	66,67
483,385	93,41
483,585	6,38
483,785	41,94
483,985	44,64
484,185	74,08
484,385	6,38
484,585	2,88
484,785	58,56
484,985	75,18
485,185	64,17
485,384	31,22
485,584	65,17
485,784	30,82
485,984	13,9
486,184	11,39
486,383	0,98
486,583	8,09
486,783	-4,63
486,983	-28,87
487,183	9,19
487,382	58,96
487,582	-24,56
487,782	28,22
487,981	87,9
488,181	1,28
488,381	-21,56
488,58	-19,05
488,78	39,83
488,98	-15,55
489,179	-42,49
489,379	-45,19
489,579	21,41
489,778	50,35
489,978	50,55
490,177	-113,39
490,377	-25,66
490,576	-36,18
490,776	-5,83
490,975	-1,03
491,175	46,44
491,374	-18,45
491,574	31,62
491,773	29,52
491,973	21,41
492,172	32,62
492,372	50,65
492,571	9,59
492,771	35,23
492,97	46,44
493,169	20,2
493,369	42,94
493,568	-20,76
493,767	-0,43
493,967	53,45
494,166	12,09
494,365	79,69
494,565	-18,55
494,764	12,49
494,963	-50,5
495,163	71,88
495,362	44,24
495,561	46,64
495,76	117,85
495,959	-38,08
496,159	17,2
496,358	32,82
496,557	25,61
496,756	-26,76
496,955	-78,64
497,155	114,34
497,354	-19,35
497,553	57,26
497,752	-3,03
497,951	0,58
498,15	44,84
498,349	15,7
498,548	-0,53
498,747	23,61
498,946	-20,76
499,145	0,98
499,344	51,65
499,543	43,94
499,742	3,38
499,941	27,41
500,14	8,39
500,339	-54,9
500,538	31,42
500,737	14,9
500,936	32,32
501,135	21,91
501,334	58,86
501,533	78,69
501,732	87,7
501,931	-25,56
502,129	-19,95
502,328	-47,89
502,527	-18,15
502,726	-18,45
502,925	8,49
503,123	34,12
503,322	-7,94
503,521	72,48
503,72	16,6
503,919	24,41
504,117	50,35
504,316	-34,98
504,515	7,39
504,713	-37,28
504,912	-11,94
505,111	38,33
505,309	2,38
505,508	12,39
505,707	17,4
505,905	-13,95
506,104	32,62
506,302	-6,53
506,501	-24,86
506,7	-7,54
506,898	-13,34
507,097	-13,54
507,295	-40,58
507,494	-34,68
507,692	43,14
507,891	93,61
508,089	14
508,288	-50,5
508,486	-3,93
508,685	-60,41
508,883	36,93
509,082	26,31
509,28	84,9
509,478	4,18
509,677	4,78
509,875	104,33
510,073	39,53
510,272	41,13
510,47	44,54
510,669	13,69
510,867	18,3
511,065	68,37
511,263	36,33
511,462	69,48
511,66	31,72
511,858	-19,35
512,056	20,91
512,255	-28,97
512,453	-10,04
512,651	-18,45
512,849	58,06
513,048	58,86
513,246	58,26
513,444	52,65
513,642	48,35
513,84	14,4
514,038	-34,78
514,236	9,29
514,435	46,04
514,633	-83,15
514,831	-9,44
515,029	-26,76
515,227	40,93
515,425	26,81
515,623	-25,86
515,821	21,51
516,019	13,79
516,217	-32,67
516,415	-4,23
516,613	27,01
516,811	-14,05
517,009	38,03
517,207	71,08
517,405	84,4
517,602	1,08
517,8	47,84
517,998	30,72
518,196	22,21
518,394	107,23
518,592	11,69
518,79	-29,17
518,987	52,65
519,185	20
519,383	33,82
519,581	-19,75
519,779	56,06
519,976	31,12
520,174	8,49
520,372	-9,54
520,57	67,07
520,767	54,85
520,965	59,56
521,163	51,75
521,36	2,68
521,558	62,67
521,756	14,7
521,953	63,57
522,151	63,47
522,349	58,76
522,546	25,31
522,744	57,36
522,941	31,92
523,139	-19,55
523,336	55,86
523,534	93,11
523,731	-24,66
523,929	-6,23
524,126	41,94
524,324	-46,89
524,521	-14,35
524,719	-12,54
524,916	17,1
525,114	39,73
525,311	77,89
525,509	-37,08
525,706	8,69
525,903	-56,61
526,101	79,19
526,298	40,93
526,496	49,05
526,693	13,49
526,89	70,58
527,088	82,19
527,285	-15,95
527,482	5,38
527,679	4,78
527,877	-40,68
528,074	-12,74
528,271	7,39
528,468	32,82
528,666	56,56
528,863	92,31
529,06	27,82
529,257	42,84
529,454	43,14
529,652	23,71
529,849	11,39
530,046	15,3
530,243	-24,86
530,44	11,19
530,637	179,94
530,834	-3,23
531,031	-1,43
531,228	-31,17
531,425	45,94
531,622	58,66
531,819	20,1
532,016	83
532,213	61,26
532,41	17,8
532,607	-21,56
532,804	-41,99
533,001	36,23
533,198	22,31
533,395	15,7
533,592	39,43
533,789	36,53
533,986	42,84
534,183	23,51
534,38	13,39
534,576	46,44
534,773	45,54
534,97	94,61
535,167	33,02
535,364	51,55
535,561	62,37
535,757	-12,94
535,954	76,29
536,151	76,39
536,348	65,37
536,544	-40,58
536,741	23,21
536,938	7,69
537,134	25,51
537,331	24,61
537,528	62,87
537,724	36,73
537,921	40,93
538,118	61,56
538,314	-23,66
538,511	60,26
538,707	7,99
538,904	40,83
539,101	50,15
539,297	14
539,494	57,76
539,69	67,57
539,887	36,13
540,083	26,41
540,28	67,77
540,476	4,48
540,673	-31,27
540,869	-41,59
541,066	33,82
541,262	55,66
541,458	64,37
541,655	66,07
541,851	131,06
542,048	-17,55
542,244	-3,43
542,44	6,68
542,637	3,08
542,833	27,92
543,029	19
543,226	-21,06
543,422	106,93
543,618	60,16
543,814	-15,15
544,011	-3,93
544,207	6,88
544,403	83,3
544,599	29,32
544,796	21,51
544,992	-33,17
545,188	11,09
545,384	18,3
545,58	84,9
545,776	10,99
545,972	29,52
546,169	11,79
546,365	-8,34
546,561	72,08
546,757	-25,26
546,953	35,73
547,149	35,23
547,345	12,79
547,541	15,2
547,737	-2,53
547,933	50,35
548,129	26,51
548,325	52,85
548,521	26,51
548,717	8,39
548,913	14,5
549,109	119,75
549,305	5,68
549,501	56,96
549,697	20,1
549,892	63,57
550,088	39,03
550,284	8,19
550,48	20,5
550,676	74,48
550,872	75,08
551,067	22,11
551,263	69,08
551,459	48,45
551,655	83,1
551,85	-13,74
552,046	97,92
552,242	38,73
552,438	-5,73
552,633	74,28
552,829	4,18
553,025	119,15
553,22	-19,55
553,416	-110,59
553,612	0,58
553,807	76,09
554,003	121,55
554,198	63,47
554,394	-85,25
554,59	66,87
554,785	-0,33
554,981	43,04
555,176	64,47
555,372	55,26
555,567	-20,55
555,763	118,95
555,958	10,39
556,154	33,32
556,349	34,42
556,545	19,2
556,74	45,94
556,936	3,08
557,131	63,47
557,326	97,62
557,522	48,75
557,717	51,65
557,912	104,03
558,108	70,18
558,303	33,62
558,498	104,33
558,694	104,53
558,889	135,47
559,084	-11,94
559,28	58,66
559,475	63,57
559,67	124,15
559,865	98,52
560,061	90,01
560,256	51,25
560,451	13,9
560,646	-3,13
560,841	51,65
561,037	-22,46
561,232	34,22
561,427	95,71
561,622	43,84
561,817	56,36
562,012	23,21
562,207	8,09
562,402	-37,38
562,597	51,65
562,792	47,94
562,987	116,84
563,182	83,9
563,377	61,06
563,572	26,71
563,767	147,39
563,962	60,26
564,157	86,1
564,352	91,71
564,547	90,51
564,742	107,53
564,937	13,79
565,132	83,5
565,327	67,67
565,522	40,13
565,716	111,64
565,911	107,23
566,106	104,33
566,301	110,44
566,496	121,35
566,691	81,79
566,885	146,89
567,08	74,28
567,275	130,76
567,47	77,69
567,664	81,09
567,859	76,89
568,054	95,71
568,248	2,08
568,443	141,48
568,638	132,87
568,832	105,93
569,027	111,84
569,222	90,51
569,416	65,97
569,611	17,7
569,805	164,01
570	128,26
570,195	108,13
570,389	99,52
570,584	90,91
570,778	130,36
570,973	172,63
571,167	90,31
571,362	208,68
571,556	148,39
571,751	98,62
571,945	51,15
572,139	134,27
572,334	112,54
572,528	94,41
572,723	123,15
572,917	89,71
573,111	148,69
573,306	143,58
573,5	112,24
573,694	193,36
573,889	145,89
574,083	138,18
574,277	144,89
574,472	206,17
574,666	201,47
574,86	226,3
575,054	239,42
575,249	136,07
575,443	178,63
575,637	218,09
575,831	217,09
576,025	257,45
576,219	192,55
576,414	212,78
576,608	201,77
576,802	151,19
576,996	246,13
577,19	224
577,384	280,38
577,578	133,17
577,772	177,93
577,966	348,78
578,16	252,14
578,354	208,18
578,548	193,66
578,742	216,39
578,936	208,48
579,13	188,85
579,324	285,39
579,518	209,18
579,712	277,88
579,906	211,58
580,1	253,34
580,294	223,2
580,488	176,93
580,682	277,58
580,875	295
581,069	217,79
581,263	229,91
581,457	353,79
581,651	333,46
581,845	296,71
582,038	364,4
582,232	322,34
582,426	341,97
582,62	316,33
582,813	265,66
583,007	311,73
583,201	361,9
583,394	339,37
583,588	378,52
583,782	346,38
583,975	437,51
584,169	392,74
584,363	440,31
584,556	449,23
584,75	381,83
584,943	423,99
585,137	439,31
585,33	420,08
585,524	472,66
585,718	480,27
585,911	491,09
586,105	429,4
586,298	517,32
586,491	431,2
586,685	457,24
586,878	542,46
587,072	517,73
587,265	565,49
587,459	572
587,652	577,71
587,845	578,91
588,039	592,83
588,232	612,96
588,426	556,78
588,619	567,7
588,812	569,9
589,005	660,43
589,199	701,39
589,392	605,65
589,585	668,34
589,779	682,56
589,972	761,48
590,165	745,86
590,358	678,96
590,551	774,4
590,745	753,17
590,938	818,86
591,131	778,7
591,324	739,45
591,517	766,89
591,71	835,69
591,904	804,44
592,097	862,43
592,29	917,1
592,483	909,79
592,676	803,34
592,869	962,37
593,062	1007,84
593,255	931,63
593,448	897,08
593,641	1079,84
593,834	1069,73
594,027	946,35
594,22	1090,76
594,413	1069,02
594,606	1088,45
594,799	1172,47
594,992	1116,99
595,184	1162,26
595,377	1242,18
595,57	1192,9
595,763	1206,02
595,956	1257,2
596,149	1359,45
596,341	1383,58
596,534	1331,71
596,727	1436,86
596,92	1399,7
597,113	1366,46
597,305	1516,27
597,498	1552,12
597,691	1567,65
597,883	1625,93
598,076	1596,19
598,269	1675,6
598,462	1729,48
598,654	1748,01
598,847	1734,29
599,039	1801,69
599,232	1887,21
599,425	1877,5
599,617	1876,09
599,81	1912,05
600,002	1962,62
600,195	1907,94
600,387	2074,28
600,58	2018
600,772	2180,14
600,965	2076,69
601,157	2138,17
601,35	2199,36
601,542	2317,23
601,735	2291,7
601,927	2472,06
602,12	2350,28
602,312	2548,87
602,504	2457,54
602,697	2582,02
602,889	2637,5
603,082	2684,97
603,274	2740,55
603,466	2811,85
603,659	2773,6
603,851	2821,36
604,043	2764,38
604,235	2911,7
604,428	2938,84
604,62	3026,56
604,812	3098,37
605,004	3156,85
605,197	3083,44
605,389	3308,17
605,581	3223,85
605,773	3395,1
605,965	3443,97
606,157	3529,09
606,349	3503,55
606,542	3662,28
606,734	3689,62
606,926	3885,71
607,118	3829,53
607,31	4034,82
607,502	4059,16
607,694	4260,05
607,886	4217,29
608,078	4433
608,27	4443,02
608,462	4616,97
608,654	4580,31
608,846	4851,21
609,038	4777,1
609,23	5094,86
609,422	5089,35
609,614	5144,63
609,805	5270,82
609,997	5475,31
610,189	5424,64
610,381	5719,07
610,573	5675
610,765	5881,7
610,957	5954,41
611,148	6166,11
611,34	6223
611,532	6634,49
611,724	6777,2
611,915	6974,49
612,107	7106,68
612,299	7363,85
612,491	7422,13
612,682	7734,19
612,874	7741,2
613,066	8159,7
613,257	8228,1
613,449	8769,49
613,64	8927,02
613,832	9227,25
614,024	9542,01
614,215	10003,48
614,407	10202,46
614,598	10528,74
614,79	10799,83
614,981	11279,83
615,173	11515,97
615,364	12120,55
615,556	12409,36
615,747	13190,8
615,939	13152,44
616,13	13965,32
616,322	14298,3
616,513	14600,24
616,705	14711,4
616,896	15477,61
617,087	15473,81
617,279	16050,44
617,47	16132,46
617,661	16987,8
617,853	17120,69
618,044	17800,08
618,235	18219,09
618,427	18939,23
618,618	19446,36
618,809	20427,99
619	20765,88
619,192	21698,03
619,383	21893,21
619,574	22896,47
619,765	22947,34
619,957	23990,75
620,148	23953,7
620,339	25159,75
620,53	25217,13
620,721	26129,05
620,912	26168,51
621,103	27667,28
621,294	27702,53
621,485	28650,01
621,677	28639,19
621,868	29802,78
622,059	29738,48
622,25	30952,74
622,441	31263,39
622,632	32098,3
622,823	32333,85
623,014	33053,79
623,205	33677,99
623,395	34270,25
623,586	34621,36
623,777	36184,93
623,968	36010,48
624,159	37254,18
624,35	37481,91
624,541	38501,69
624,732	38723,81
624,923	39743,29
625,113	39985,84
625,304	40377,41
625,495	40754,15
625,686	41573,04
625,877	42058,14
626,067	42705,08
626,258	43240,46
626,449	44136,76
626,639	44371,5
626,83	45673,58
627,021	45734,77
627,211	47070,01
627,402	47353,02
627,593	48245,71
627,783	48954,84
627,974	49934,36
628,165	50292,18
628,355	51379,35
628,546	51592,36
628,736	53354,52
628,927	53181,77
629,117	55133,6
629,308	55347,31
629,498	56841,47
629,689	56976,97
629,879	58629,46
630,07	58804,82
630,26	59446,55
630,451	59654,85
630,641	60830,76
630,832	60430,28
631,022	61497,22
631,212	61171,35
631,403	61967,5
631,593	61507,34
631,784	62374,19
631,974	61790,95
632,164	62910,97
632,355	62084,67
632,545	63011,02
632,735	62398,23
632,925	62729,51
633,116	62190,43
633,306	62077,46
633,496	61376,25
633,686	61522,96
633,876	60320,82
634,067	60180,81
634,257	58959,94
634,447	58570,78
634,637	57412,4
634,827	56106,91
635,017	53519,36
635,208	53062,39
635,398	50696,06
635,588	49816,69
635,778	46918,49
635,968	46303,9
636,158	43530,58
636,348	42375,3
636,538	40150,08
636,728	39303,45
636,918	36831,27
637,108	36031,01
637,298	33956,2
637,488	32867,92
637,678	31038,67
637,868	29778,74
638,057	28227,69
638,247	27126,8
638,437	25504,85
638,627	24685,36
638,817	22756,16
639,007	22224,09
639,197	20571,6
639,386	19545,21
639,576	18211,98
639,766	17302,56
639,956	16291,89
640,145	15424,13
640,335	14439,61
640,525	14021,6
640,715	13119,09
640,904	12557,38
641,094	11680,01
641,284	11403,31
641,473	10777,9
641,663	10364,9
641,853	9751,11
642,042	9490,23
642,232	8755,27
642,421	8508,41
642,611	8110,63
642,801	7689,72
642,99	7264,61
643,18	7051,6
643,369	6646,11
643,559	6395,55
643,748	6141,78
643,938	5797,98
644,127	5348,33
644,317	5177,68
644,506	4886,36
644,695	4726,83
644,885	4510,41
645,074	4247,63
645,264	4116,24
645,453	3965,12
645,642	3825,62
645,832	3694,83
646,021	3585,97
646,21	3498,95
646,4	3239,27
646,589	3230,46
646,778	3091,26
646,967	2895,67
647,157	2724,02
647,346	2802,64
647,535	2531,34
647,724	2505,71
647,913	2398,85
648,103	2308,02
648,292	2124,55
648,481	2118,05
648,67	1997,57
648,859	1888,41
649,048	1886,91
649,237	1703,74
649,427	1745,1
649,616	1669,5
649,805	1611,31
649,994	1518,48
650,183	1453,28
650,372	1443,87
650,561	1361,55
650,75	1381,08
650,939	1263,61
651,128	1193,61
651,317	1124,3
651,506	1115,09
651,694	1098,37
651,883	1095,36
652,072	933,43
652,261	957,76
652,45	896,37
652,639	898,68
652,828	827,47
653,016	873,44
653,205	733,44
653,394	740,65
653,583	682,66
653,772	750,66
653,96	625,88
654,149	603,35
654,338	660,73
654,527	620,67
654,715	595,74
654,904	574,01
655,093	551,47
655,281	525,74
655,47	518,93
655,658	496,19
655,847	452,53
656,036	494,09
656,224	467,05
656,413	431,2
656,601	367,11
656,79	386,74
656,978	415,18
657,167	425,99
657,355	376,22
657,544	320,04
657,732	390,74
657,921	324,14
658,109	295
658,298	324,85
658,486	313,03
658,675	312,53
658,863	425,39
659,051	301,11
659,24	271,87
659,428	203,27
659,616	267,66
659,805	239,42
659,993	202,87
660,181	209,98
660,37	277,18
660,558	177,83
660,746	291,6
660,934	203,47
661,123	184,34
661,311	176,23
661,499	272,67
661,687	193,56
661,875	240,42
662,064	176,23
662,252	192,95
662,44	165,31
662,628	134,77
662,816	196,66
663,004	193,86
663,192	132,17
663,38	179,84
663,568	225,4
663,756	118,65
663,944	178,53
664,132	168,12
664,32	138,88
664,508	156,1
664,696	131,77
664,884	215,29
665,072	130,36
665,26	107,23
665,448	186,04
665,636	88,2
665,824	208,28
666,012	121,35
666,199	75,89
666,387	121,85
666,575	108,23
666,763	98,02
666,951	96,72
667,139	131,47
667,326	133,97
667,514	60,76
667,702	89
667,889	142,68
668,077	117,24
668,265	36,93
668,453	77,89
668,64	65,57
668,828	91,71
669,016	105,63
669,203	108,53
669,391	134,77
669,578	115,24
669,766	83,6
669,954	69,88
670,141	92,01
670,329	-1,13
670,516	77,59
670,704	145,79
670,891	82,9
671,079	54,95
671,266	160,71
671,454	102,12
671,641	96,62
671,828	99,42
672,016	-19,05
672,203	37,63
672,391	82,39
672,578	43,14
672,765	-0,63
672,953	46,44
673,14	86,6
673,327	62,57
673,515	64,87
673,702	53,05
673,889	15,4
674,077	-22,66
674,264	73,98
674,451	33,32
674,638	44,44
674,825	-21,96
675,013	78,29
675,2	59,06
675,387	37,13
675,574	-13,34
675,761	86,6
675,948	92,41
676,136	101,12
676,323	41,54
676,51	43,74
676,697	148,89
676,884	27,21
677,071	72,28
677,258	117,55
677,445	56,66
677,632	41,64
677,819	12,39
678,006	56,66
678,193	-6,53
678,38	-18,15
678,567	77,89
678,754	115,34
678,94	51,85
679,127	57,76
679,314	64,77
679,501	22,31
679,688	104,03
679,875	55,76
680,062	60,46
680,248	87
680,435	52,55
680,622	94,51
680,809	46,14
680,995	75,08
681,182	61,16
681,369	14,8
681,556	74,88
681,742	98,32
681,929	90,61
682,116	110,54
682,302	-42,19
682,489	64,67
682,675	2,28
682,862	117,04
683,049	85,1
683,235	37,63
683,422	-30,57
683,608	74,88
683,795	-5,93
683,981	-14,95
684,168	7,29
684,354	81,29
684,541	23,01
684,727	83,2
684,914	78,09
685,1	32,22
685,287	56,26
685,473	37,93
685,659	46,14
685,846	83,9
686,032	2,18
686,218	20,3
686,405	45,14
686,591	25,81
686,777	67,87
686,964	59,46
687,15	153,3
687,336	52,95
687,522	73,58
687,709	-52,1
687,895	49,35
688,081	27,72
688,267	27,92
688,454	63,07
688,64	51,15
688,826	75,28
689,012	-18,35
689,198	-4,53
689,384	52,75
689,57	-12,64
689,756	34,73
689,942	7,99
690,128	56,26
690,314	57,96
690,501	-16,35
690,687	51,05
690,873	43,24
691,058	2,98
691,244	0,78
691,43	-64,82
691,616	59,16
691,802	-30,47
691,988	48,55
692,174	48,65
692,36	30,12
692,546	-21,96
692,732	80,09
692,917	77,89
693,103	57,86
693,289	78,19
693,475	0,48
693,661	13,19
693,846	53,15
694,032	-52,1
694,218	17,5
694,404	64,47
694,589	14,3
694,775	45,54
694,961	-3,23
695,146	-27,06
695,332	34,22
695,518	76,79
695,703	29,62
695,889	74,28
696,074	-8,54
696,26	-26,76
696,446	-53,2
696,631	84,7
696,817	73,78
697,002	18,4
697,188	19,5
697,373	28,02
697,559	25,71
697,744	10,49
697,93	83,9
698,115	-47,09
698,3	-20,15
698,486	3,68
698,671	60,76
698,857	-7,34
699,042	-86,65
699,227	124,86
699,413	-24,36
699,598	10,19
699,783	48,85
699,969	89,3
700,154	6,08
700,339	-11,84
700,524	8,29
700,71	16,7
700,895	-34,37
701,08	101,52
701,265	-41,28
701,45	91,01
701,636	1,38
701,821	-0,93
702,006	9,69
702,191	0,08
702,376	-59,91
702,561	-33,67
702,746	-2,13
702,931	98,92
703,116	59,16
703,301	9,39
703,486	-5,63
703,671	-12,04
703,856	-44,69
704,041	34,73
704,226	71,48
704,411	-30,97
704,596	-146,74
704,781	-16,35
704,966	44,94
705,151	20,3
705,336	15,8
705,521	12,99
705,706	94,11
705,89	-11,24
706,075	11,99
706,26	62,06
706,445	38,23
706,63	-18,95
706,814	62,57
706,999	8,79
707,184	18,2
707,368	51,95
707,553	53,95
707,738	1,68
707,923	93,21
708,107	10,59
708,292	12,59
708,476	35,73
708,661	17,6
708,846	37,83
709,03	41,84
709,215	29,72
709,399	-17,65
709,584	-24,36
709,768	50,35
709,953	15,5
710,137	37,23
710,322	-19,15
710,506	-17,35
710,691	-15,35
710,875	-7,24
711,06	44,74
711,244	38,73
711,429	7,79
711,613	-27,87
711,797	31,12
711,982	31,32
712,166	76,09
712,35	-25,36
712,535	82,8
712,719	101,42
712,903	28,02
713,088	1,18
713,272	22,81
713,456	-26,36
713,64	5,78
713,824	-36,28
714,009	105,13
714,193	-41,59
714,377	-17,05
714,561	5,98
714,745	85
714,929	99,22
715,113	26,71
715,298	-3,53
715,482	104,03
715,666	-21,26
715,85	15,3
716,034	15,3
716,218	14,8
716,402	11,79
716,586	26,11
716,77	13,59
716,954	52,45
717,138	-3,63
717,322	-57,91
717,506	15,1
717,689	6,48
717,873	-26,46
718,057	30,72
718,241	17,5
718,425	10,49
718,609	33,62
718,793	32,12
718,976	44,94
719,16	67,97
719,344	42,64
719,528	60,46
719,711	13,69
719,895	91,01
720,079	98,72
720,263	75,68
720,446	-16,55
720,63	-71,83
720,814	-104,38
720,997	-6,43
721,181	11,49
721,364	29,82
721,548	25,51
721,732	2,28
721,915	73,48
722,099	34,42
722,282	50,95
722,466	48,95
722,649	-68,02
722,833	6,78
723,016	-7,34
723,2	21,01
723,383	-9,14
723,567	42,04
723,75	12,09
723,934	8,09
724,117	-4,13
724,3	-1,73
724,484	-7,64
724,667	-22,46
724,85	23,21
725,034	20,5
725,217	-11,64
725,4	29,22
725,584	96,62
725,767	-38,28
725,95	54,65
726,133	-31,47
726,317	13,09
726,5	-7,54
726,683	34,63
726,866	37,83
727,049	-2,33
727,232	13,59
727,416	-3,83
727,599	28,12
727,782	-52,1
727,965	1,18
728,148	110,64
728,331	111,24
728,514	31,02
728,697	-13,54
728,88	-39,68
729,063	25,91
729,246	-43,99
729,429	18,3
729,612	-1,53
729,795	51,15
729,978	59,56
730,161	89,4
730,344	3,88
730,526	38,53
730,709	50,55
730,892	46,14
731,075	-11,54
731,258	46,84
731,441	70,38
731,623	18,3
731,806	-3,13
731,989	37,33
732,172	-65,02
732,354	29,22
732,537	122,65
732,72	-50,9
732,903	53,55
733,085	29,32
733,268	63,37
733,451	10,99
733,633	46,54
733,816	87,7
733,998	-7,74
734,181	-83,25
734,364	-0,53
734,546	14,9
734,729	-4,73
734,911	-14,55
735,094	12,19
735,276	34,22
735,459	11,69
735,641	-32,57
735,824	-47,29
736,006	2,88
736,188	67,67
736,371	2,18
736,553	36,43
736,736	30,32
736,918	-20,45
737,1	12,49
737,283	-51,9
737,465	15,8
737,647	-16,95
737,83	-44,69
738,012	50,75
738,194	49,45
738,376	-41,89
738,559	-19,05
738,741	21,81
738,923	16,4
739,105	1,78
739,287	6,08
739,469	39,63
739,652	36,03
739,834	20,71
740,016	66,77
740,198	30,42
740,38	3,68
740,562	-7,04
740,744	92,91
740,926	-16,35
741,108	1,18
741,29	26,71
741,472	21,11
741,654	14
741,836	48,65
742,018	35,13
742,2	85,5
742,382	-17,85
742,564	67,17
742,746	31,92
742,928	25,91
743,109	-6,23
743,291	-50,2
743,473	-44,79
743,655	-34,37
743,837	2,28
744,019	36,63
744,2	11,69
744,382	0,88
744,564	-42,09
744,746	-47,19
744,927	30,82
745,109	-11,24
745,291	21,11
745,472	-23,96
745,654	41,03
745,836	21,51
746,017	2,48
746,199	36,93
746,38	26,11
746,562	-71,23
746,744	19,3
746,925	16,5
747,107	45,24
747,288	26,31
747,47	-11,64
747,651	-53,7
747,833	-76,14
748,014	17,4
748,195	93,91
748,377	32,92
748,558	30,52
748,74	23,01
748,921	53,85
749,102	50,95
749,284	-23,26
749,465	92,81
749,646	20,91
749,828	-7,24
750,009	16,2
750,19	9,99
750,372	92,41
750,553	52,75
750,734	30,92
750,915	-73,43
751,096	61,96
751,278	38,93
751,459	90,61
751,64	17,1
751,821	68,77
752,002	-16,25
752,183	-6,33
752,364	15,8
752,546	31,92
752,727	-9,64
752,908	46,34
753,089	-4,63
753,27	76,59
753,451	7,59
753,632	-7,14
753,813	-27,16
753,994	-10,14
754,175	-4,53
754,356	22,71
754,536	40,73
754,717	-43,89
754,898	65,17
755,079	87,5
755,26	43,04
755,441	54,35
755,622	25,91
755,802	69,98
755,983	-40,98
756,164	17,1
756,345	60,66
756,526	12,49
756,706	38,83
756,887	20,2
757,068	81,89
757,248	25,81
757,429	32,82
757,61	4,18
757,79	30,32
757,971	3,08
758,152	-2,03
758,332	-68,22
758,513	26,61
758,693	3,78
758,874	44,14
759,055	55,66
759,235	9,89
759,416	-23,56
759,596	15,7
759,777	73,18
759,957	-56,61
760,137	54,05
760,318	14,7
760,498	61,16
760,679	23,11
760,859	0,28
761,039	65,67
761,22	49,65
761,4	21,91
761,581	84,8
761,761	-4,03
761,941	104,13
762,121	13,69
762,302	-37,08
762,482	77,59
762,662	-16,75
762,842	13,9
763,023	18,2
763,203	-65,72
763,383	28,92
763,563	44,34
763,743	16,4
763,923	18,5
764,104	61,66
764,284	-16,85
764,464	-7,64
764,644	-22,16
764,824	23,51
765,004	-34,68
765,184	14,5
765,364	-24,76
765,544	-7,94
765,724	4,58
765,904	19,4
766,084	-8,54
766,264	31,52
766,444	26,81
766,624	-4,83
766,804	-45,79
766,983	39,83
767,163	61,06
767,343	-11,64
767,523	73,78
767,703	69,78
767,883	62,47
768,062	-29,67
768,242	-11,84
768,422	-16,45
768,602	38,23
768,781	-39,58
768,961	-24,86
769,141	-11,44
769,32	31,42
769,5	15,1
769,68	-13,64
769,859	-6,63
770,039	37,33
770,219	-0,73
770,398	-42,29
770,578	8,79
770,757	-13,85
770,937	16,4
771,116	-27,26
771,296	23,71
771,475	-22,86
771,655	-58,11
771,834	24,41
772,014	-0,13
772,193	116,24
772,373	11,89
772,552	-34,17
772,731	-26,46
772,911	-12,14
773,09	29,72
773,269	37,53
773,449	41,94
773,628	43,54
773,807	-8,84
773,987	5,58
774,166	-22,96
774,345	40,73
774,524	-41,69
774,704	-20,65
774,883	-29,37
775,062	8,19
775,241	56,76
775,42	33,32
775,6	43,74
775,779	-38,68
775,958	11,79
776,137	62,57
776,316	25,51
776,495	57,16
776,674	-71,23
776,853	-4,03
777,032	-2,73
777,211	28,42
777,39	-60,71
777,569	6,58
777,748	25,21
777,927	-14,05
778,106	4,08
778,285	16,4
778,464	-23,56
778,643	27,01
778,822	-21,16
779	71,78
779,179	-3,03
779,358	43,34
779,537	4,98
779,716	-36,38
779,894	6,78
780,073	15,3
780,252	-42,89
780,431	-22,56
780,609	-24,26
780,788	44,94
780,967	-70,83
781,145	56,36
781,324	-14,45
781,503	-49
781,681	-25,96
781,86	5,98
782,039	44,44
782,217	-42,79
782,396	-2,33
782,574	-30,67
782,753	67,47
782,931	48,35
783,11	36,63
783,288	-40,68
783,467	58,66
783,645	-92,66
783,824	53,95
784,002	-77,94
784,18	-35,88
784,359	18,9
784,537	-49,1
784,716	29,52
784,894	53,05
785,072	-74,13
785,251	31,32
785,429	-9,84
785,607	13,49
785,785	-27,67
785,964	42,14
786,142	-145,64
786,32	35,13
786,498	-49,5
786,677	55,15
786,855	3,68
787,033	22,41
787,211	-44,49
787,389	33,92
787,567	38,63
787,745	9,49
787,923	48,35
788,102	28,22
788,28	43,24
788,458	-2,73
788,636	-6,94
788,814	5,78
788,992	45,34
789,17	30,02
789,348	56,46
789,526	53,55
789,703	-30,67
789,881	20
790,059	-34,78
790,237	10,39
790,415	-6,33
790,593	9,29
790,771	48,85
790,949	19,8
791,126	63,07
791,304	-9,94
791,482	-27,36
791,66	-9,54
791,837	34,53
792,015	13,79
792,193	-7,44
792,371	85,7
792,548	65,87
792,726	44,64
792,904	-32,37
793,081	-21,46
793,259	-61,71
793,436	48,45
793,614	16,5
793,792	0,18
793,969	74,88
794,147	39,23
794,324	97,62
794,502	39,63
794,679	-57,91
794,857	25,91
795,034	22,81
795,212	-47,09
795,389	19,4
795,567	57,66
795,744	62,57
795,921	-23,56
796,099	-25,36
796,276	-1,73
796,453	29,92
796,631	-17,75
796,808	-47,59
796,985	-9,04
797,163	80,89
797,34	-34,98
797,517	19,5
797,694	-14,55
797,872	-13,54
798,049	-2,93
798,226	56,06
798,403	28,52
798,58	80,79
798,757	-25,96
798,935	41,54
799,112	-43,79
799,289	-26,86
799,466	-13,14
799,643	89,1
799,82	48,75
799,997	46,74
800,174	39,13
800,351	-43,29
800,528	75,28
800,705	14
800,882	22,91
801,059	8,59
801,236	33,92
801,413	-36,48
801,589	3,98
801,766	-3,83
801,943	29,72
802,12	67,67
802,297	42,74
802,474	-7,04
802,651	7,39
802,827	28,82
803,004	23,31
803,181	41,33
803,358	69,08
803,534	2,78
803,711	-42,89
803,888	-40,88
804,064	-10,24
804,241	-54,5
804,418	-26,86
804,594	-0,83
804,771	-79,14
804,947	93,01
805,124	-55,81
805,301	63,67
805,477	47,74
805,654	41,74
805,83	-45,69
806,007	12,39
806,183	44,14
806,36	31,62
806,536	-31,17
806,712	-38,88
806,889	-28,27
807,065	-15,05
807,242	-13,14
807,418	28,62
807,594	40,03
807,771	28,32
807,947	-35,48
808,123	51,35
808,3	26,01
808,476	-7,54
808,652	-9,64
808,829	-3,83
809,005	60,86
809,181	-10,14
809,357	45,44
809,533	-19,25
809,71	31,32
809,886	24,71
810,062	93,21
810,238	-27,36
810,414	56,86
810,59	-21,36
810,766	-11,64
810,942	20,4
811,118	10,79
811,294	14
811,47	-12,14
811,646	85,4
811,822	-4,13
811,998	68,57
812,174	-34,47
812,35	23,61
812,526	-2,23
812,702	-28,77
812,878	7,29
813,054	27,41
813,23	-82,64
813,405	49,75
813,581	16,3
813,757	39,13
813,933	74,38
814,109	-35,28
814,284	122,25
814,46	-9,04
814,636	-19,15
814,812	-39,58
814,987	-21,56
815,163	41,54
815,339	-9,74
815,514	-27,97
815,69	-9,84
815,866	1,18
816,041	16
816,217	70,08
816,392	17,1
816,568	25,11
816,743	30,92
816,919	21,31
817,094	25,01
817,27	-25,36
817,445	46,34
817,621	-26,16
817,796	57,66
817,972	-24,96
818,147	-60,51
818,322	4,98
818,498	87,7
818,673	-9,34
818,849	-8,44
819,024	-50,4
819,199	30,82
819,375	30,42
819,55	29,62
819,725	53,35
819,9	6,18
820,076	41,44
820,251	-21,36
820,426	99,42
820,601	67,97
820,776	6,99
820,952	48,45
821,127	44,64
821,302	77,89
821,477	-19,65
821,652	27,31
821,827	-10,24
822,002	-0,73
822,177	-23,76
822,352	1,58
822,527	13,19
822,702	-27,77
822,877	11,49
823,052	-2,63
823,227	12,19
823,402	10,19
823,577	50,45
823,752	28,42
823,927	-26,16
824,102	89,3
824,277	72,08
824,451	6,99
824,626	-18,95
824,801	-12,34
824,976	110,03
825,151	11,89
825,325	51,15
825,5	13,59
825,675	50,25
825,85	53,45
826,024	70,78
826,199	45,04
826,374	-32,37
826,548	33,12
826,723	64,77
826,897	32,22
827,072	-36,68
827,247	33,12
827,421	-11,14
827,596	20,5
827,77	7,39
827,945	74,38
828,119	-5,13
828,294	68,47
828,468	-9,94
828,643	-7,04
828,817	11,99
828,992	-4,03
829,166	-18,25
829,34	76,49
829,515	53,55
829,689	47,94
829,864	17,4
830,038	49,25
830,212	61,26
830,386	-15,75
830,561	70,18
830,735	-1,83
830,909	52,85
831,084	-17,15
831,258	31,92
831,432	14,9
831,606	34,12
831,78	20,91
831,954	92,21
832,129	51,15
832,303	18,2
832,477	-4,63
832,651	71,58
832,825	-52,2
832,999	93,51
833,173	-42,69
833,347	-12,54
833,521	16,6
833,695	34,22
833,869	20
834,043	-4,53
834,217	-5,43
834,391	-1,33
834,565	6,58
834,739	24,41
834,913	-20,45
835,086	-13,74
835,26	-19,05
835,434	-8,24
835,608	37,53
835,782	27,21
835,956	-20,15
836,129	-19,55
836,303	90,31
836,477	9,59
836,651	8,09
836,824	42,64
836,998	-15,65
837,172	15,8
837,345	82,19
837,519	2,38
837,693	14,4
837,866	23,41
838,04	-31,17
838,213	-32,47
838,387	-8,24
838,56	-25,66
838,734	15,9
838,907	60,26
839,081	45,24
839,254	22,81
839,428	-40,18
839,601	52,75
839,775	-100,97
839,948	7,69
840,122	40,13
840,295	3,08
840,468	-32,37
840,642	30,12
840,815	-16,95
840,988	-41,18
841,162	3,08
841,335	57,06
841,508	37,53
841,682	-4,13
841,855	27,62
842,028	31,02
842,201	23,31
842,374	-3,23
842,548	46,94
842,721	17,8
842,894	-10,84
843,067	-98,07
843,24	-73,23
843,413	-5,23
843,586	45,24
843,759	-2,73
843,932	35,23
844,105	-57,51
844,278	6,88
844,451	17,6
844,624	5,38
844,797	16,5
844,97	29,02
845,143	7,29
845,316	66,17
845,489	-43,59
845,662	-10,14
845,835	77,29
846,008	-34,88
846,18	-25,56
846,353	77,99
846,526	48,75
846,699	14,7
846,872	43,64
847,044	13,39
847,217	-43,69
847,39	-9,94
847,563	40,63
847,735	12,49
847,908	48,95
848,081	-29,87
848,253	-28,27
848,426	-37,78
848,598	64,47
848,771	43,44
848,944	-50,8
849,116	-71,03
849,289	-15,45
849,461	-21,66
849,634	27,51
849,806	10,99
849,979	-2,43
850,151	82,9
850,324	114,74
850,496	24,81
850,668	-49,3
850,841	-27,67
851,013	57,06
851,186	-33,57
851,358	-17,65
851,53	15,6
851,703	11,59
851,875	-28,87
852,047	-8,54
852,219	-89,25
852,392	26,21
852,564	-2,93
852,736	-61,51
852,908	-39,28
853,081	36,43
853,253	17,8
853,425	31,92
853,597	63,47
853,769	2,18
853,941	36,53
854,113	-11,44
854,285	37,23
854,457	43,04
854,63	-15,95
854,802	53,35
854,974	7,09
855,146	43,34
855,318	93,81
855,489	-2,53
855,661	94,31
855,833	3,78
856,005	43,44
856,177	-66,22
856,349	-9,64
856,521	-0,93
856,693	-97,77
856,865	-49,3
857,036	135,37
857,208	40,63
857,38	-26,86
857,552	-7,44
857,723	23,41
857,895	-4,13
858,067	-33,97
858,239	23,81
858,41	-77,34
858,582	51,05
858,754	11,59
858,925	-102,47
859,097	11,89
859,268	44,44
859,44	-26,96
859,612	-32,57
859,783	-102,47
859,955	-31,77
860,126	-32,17
860,298	-11,94
860,469	44,34
860,641	-46,09
860,812	-41,18
860,983	-40,28
861,155	-15,25
861,326	0,88
861,498	12,89
861,669	-1,13
861,84	51,85
862,012	39,63
862,183	25,31
862,354	60,26
862,526	-6,03
862,697	-1,53
862,868	-25,16
863,039	8,09
863,211	-90,86
863,382	-8,64
863,553	-32,67
863,724	-44,29
863,895	-0,53
864,066	85,5
864,238	1,48
864,409	62,67
864,58	-55,51
864,751	62,57
864,922	-46,49
865,093	35,73
865,264	50,85
865,435	-31,07
865,606	29,82
865,777	7,99
865,948	6,28
866,119	38,43
866,29	66,17
866,461	-4,93
866,632	-79,04
866,802	-14,05
866,973	-0,73
867,144	-42,29
867,315	7,49
867,486	-5,73
867,657	7,19
867,827	50,65
867,998	47,74
868,169	-26,86
868,34	57,36
868,51	-32,67
868,681	38,63
868,852	-19,75
869,022	49,05
869,193	82,69
869,364	20,5
869,534	-30,27
869,705	7,49
869,875	-7,94
870,046	1,48
870,217	-10,24
870,387	2,08
870,558	67,27
870,728	14,9
870,899	-16,95
871,069	-13,74
871,239	47,34
871,41	5,88
871,58	65,47
871,751	11,29
871,921	-14,95
872,091	-41,08
872,262	3,28
872,432	73,28
872,602	-124,41
872,773	24,31
872,943	-9,64
873,113	45,04
873,284	-47,19
873,454	3,18
873,624	13,29
873,794	-19,45
873,964	30,62
874,135	-14,55
874,305	1,18
874,475	16,4
874,645	-56,71
874,815	-2,23
874,985	-19,65
875,155	-10,34
875,325	-45,29
875,495	-1,23
875,665	-8,54
875,835	-3,43
876,005	-7,44
876,175	0,18
876,345	0,08
876,515	-32,47
876,685	70,78
876,855	67,97
877,025	-27,87
877,195	-65,12
877,365	-3,83
877,534	11,99
877,704	-5,93
877,874	92,01
878,044	-27,67
878,214	43,34
878,383	12,79
878,553	55,96
878,723	-23,96
878,892	36,63
879,062	25,01
879,232	18
879,401	-7,14
879,571	7,89
879,741	-120,8
879,91	-43,79
880,08	25,91
880,249	10,99
880,419	-4,53
880,589	-3,63
880,758	-3,23
880,928	52,35
881,097	-34,47
881,267	20,6
881,436	-24,06
881,605	49,35
881,775	-120
881,944	-10,14
882,114	50,95
882,283	-12,44
882,452	45,54
882,622	-21,26
882,791	-60,21
882,96	-39,78
883,13	26,01
883,299	16,8
883,468	-10,44
883,637	-48,19
883,807	41,74
883,976	-36,68
884,145	2,18
884,314	38,83
884,483	-27,77
884,652	2,08
884,822	-28,07
884,991	-42,89
885,16	7,89
885,329	-3,73
885,498	-7,34
885,667	30,72
885,836	6,18
886,005	-33,67
886,174	38,83
886,343	53,15
886,512	2,68
886,681	4,98
886,85	52,95
887,019	35,23
887,187	4,48
887,356	20,81
887,525	-39,58
887,694	-23,86
887,863	-20,55
888,032	-9,74
888,2	-14,95
888,369	-33,17
888,538	33,42
888,707	-13,14
888,875	-45,79
889,044	-29,27
889,213	79,99
889,381	-7,64
889,55	-18,85
889,719	38,03
889,887	68,27
890,056	-84,85
890,224	69,18
890,393	-25,46
890,562	70,38
890,73	-11,14
890,899	13,9
891,067	32,52
891,236	-16,55
891,404	47,44
891,573	-27,46
891,741	-69,23
891,909	-1,03
892,078	51,15
892,246	19,3
892,415	0,58
892,583	20,71
892,751	12,69
892,92	19,7
893,088	-5,93
893,256	51,05
893,424	-31,27
893,593	37,33
893,761	-45,99
893,929	-53,1
894,097	27,92
894,265	-28,07
894,434	31,32
894,602	41,44
894,77	0,58
894,938	25,11
895,106	43,74
895,274	50,95
895,442	12,99
895,61	79,69
895,778	-28,47
895,946	-5,33
896,114	16,8
896,282	-75,53
896,45	21,81
896,618	53,45
896,786	23,71
896,954	14,8
897,122	1,78
897,29	-23,56
897,458	-4,63
897,625	1,18
897,793	50,35
897,961	74,18
898,129	-45,79
898,297	63,37
898,464	30,82
898,632	3,78
898,8	45,74
898,968	-32,47
899,135	24,01
899,303	-3,43
899,471	-47,69
899,638	21,61
899,806	8,79
899,973	15
900,141	59,96
900,309	-8,94
900,476	15,9
900,644	75,89
900,811	4,08
900,979	37,73
901,146	1,98
901,314	27,62
901,481	5,28
901,649	16,6
901,816	20,2
901,983	32,62
902,151	-31,97
