Data from Subt6__4__16-08-14-391.txt Node

Date: Thu Feb 19 16:08:14 CET 2026
User: Versuch 234
Spectrometer: USB4F05580
Trigger mode: 4
Integration Time (sec): 2,500000E-2
Scans to average: 20
Electric dark correction enabled: true
Nonlinearity correction enabled: false
Boxcar width: 0
XAxis mode: Wavelengths
Number of Pixels in Spectrum: 3648
>>>>>Begin Spectral Data<<<<<
197,409	144,58
197,623	144,58
197,837	144,58
198,051	58,65
198,265	74,57
198,479	0,27
198,693	-28,67
198,907	-37,09
199,122	-25,07
199,336	3,27
199,55	20,3
199,763	2,17
199,977	21,2
200,191	65,16
200,405	32,11
200,619	-18,76
200,833	-34,88
201,047	23,3
201,261	45,93
201,475	31,11
201,689	32,61
201,903	-23,57
202,117	-13,85
202,331	20,7
202,545	42,23
202,758	22
202,972	-21,26
203,186	-26,47
203,4	29,31
203,614	29,11
203,828	-22,17
204,041	21,6
204,255	60,85
204,469	-1,54
204,683	31,41
204,897	-0,33
205,11	-18,16
205,324	-32,48
205,538	-73,74
205,752	-0,93
205,965	27,71
206,179	-6,74
206,393	5,17
206,606	-13,55
206,82	56,35
207,034	-17,66
207,248	9,68
207,461	38,02
207,675	30,71
207,889	-38,59
208,102	-1,24
208,316	-11,65
208,529	1,17
208,743	49,04
208,957	15,79
209,17	79,68
209,384	-38,89
209,597	14,29
209,811	-27,47
210,025	16,49
210,238	-47,2
210,452	19,19
210,665	-40,19
210,879	-0,53
211,092	72,67
211,306	-38,89
211,519	-20,46
211,733	-77,45
211,946	77,18
212,16	0,97
212,373	-29,78
212,587	13,79
212,8	35,22
213,014	-2,34
213,227	29,51
213,44	10,88
213,654	50,54
213,867	55,35
214,081	54,75
214,294	-3,64
214,507	-59,32
214,721	47,64
214,934	-13,55
215,148	37,52
215,361	84,89
215,574	-41,49
215,788	-45
216,001	-42,6
216,214	-74,54
216,428	-7,74
216,641	20,8
216,854	-30,38
217,067	21,1
217,281	-25,77
217,494	0,67
217,707	49,84
217,92	-27,07
218,134	24,2
218,347	-7,14
218,56	2,17
218,773	-24,67
218,986	1,17
219,2	13,69
219,413	16,99
219,626	-4,84
219,839	7,58
220,052	37,42
220,265	1,17
220,479	13,29
220,692	23,7
220,905	3,47
221,118	-41,89
221,331	50,34
221,544	-11,55
221,757	-14,96
221,97	-33,98
222,183	0,67
222,396	95
222,609	-45,4
222,822	55,25
223,035	21,1
223,249	-32,28
223,462	-24,17
223,675	72,27
223,887	-42,29
224,1	-19,96
224,313	-5,84
224,526	43,23
224,739	1,17
224,952	3,87
225,165	-30,38
225,378	-18,96
225,591	41,73
225,804	-12,65
226,017	-6,74
226,23	-104,08
226,443	-12,35
226,656	28,11
226,868	-32,38
227,081	36,12
227,294	-8,35
227,507	-36,79
227,72	1,07
227,933	0,97
228,145	53,54
228,358	9,98
228,571	18,99
228,784	1,37
228,997	-3,64
229,209	35,02
229,422	-7,64
229,635	37,42
229,848	-5,64
230,06	-9,15
230,273	-0,03
230,486	21,5
230,698	-52,21
230,911	-23,77
231,124	27,11
231,336	-33,18
231,549	-21,76
231,762	-9,05
231,974	55,75
232,187	-14,75
232,4	15,59
232,612	57,95
232,825	37,62
233,038	-17,26
233,25	22,7
233,463	-4,14
233,675	-15,36
233,888	8,88
234,1	61,26
234,313	-0,63
234,526	55,95
234,738	-25,87
234,951	53,64
235,163	-0,53
235,376	-34,68
235,588	15,49
235,801	3,27
236,013	-27,97
236,226	-14,55
236,438	-2,54
236,65	-23,37
236,863	27,31
237,075	85,79
237,288	-64,43
237,5	-12,25
237,713	17,79
237,925	-0,33
238,137	29,51
238,35	2,17
238,562	-45,1
238,774	-25,87
238,987	74,88
239,199	-32,58
239,411	-29,88
239,624	85,49
239,836	-95,27
240,048	-45,6
240,261	-22,97
240,473	-30,98
240,685	41,13
240,897	6,68
241,11	65,16
241,322	-39,99
241,534	16,69
241,746	-27,97
241,959	12,99
242,171	-31,88
242,383	5,07
242,595	48,54
242,807	1,47
243,02	4,47
243,232	16,69
243,444	13,19
243,656	-30,18
243,868	-38,99
244,08	-37,09
244,293	56,35
244,505	-26,87
244,717	-35,08
244,929	-16,66
245,141	-37,49
245,353	-10,05
245,565	-18,16
245,777	-39,09
245,989	27,51
246,201	-59,52
246,413	56,35
246,625	-44,7
246,837	-45,5
247,049	55,15
247,261	2,87
247,473	67,16
247,685	51,54
247,897	38,22
248,109	-5,44
248,321	-21,66
248,533	8,18
248,745	7,88
248,957	-39,99
249,169	-14,45
249,381	2,77
249,593	-28,98
249,804	-45,7
250,016	14,29
250,228	3,87
250,44	31,01
250,652	45,83
250,864	-0,43
251,075	32,61
251,287	0,97
251,499	20,2
251,711	40,33
251,923	-68,03
252,134	40,12
252,346	19,8
252,558	10,98
252,77	0,17
252,982	-1,24
253,193	30,61
253,405	17,19
253,617	-25,47
253,828	62,16
254,04	40,12
254,252	-10,75
254,463	2,87
254,675	86,39
254,887	-18,66
255,098	15,59
255,31	8,08
255,522	53,14
255,733	13,39
255,945	49,44
256,157	-17,46
256,368	1,77
256,58	17,29
256,791	-3,64
257,003	45,03
257,214	15,49
257,426	-45,4
257,637	53,04
257,849	57,75
258,061	-11,75
258,272	8,28
258,484	38,22
258,695	42,23
258,907	-1,64
259,118	40,22
259,329	23,9
259,541	-49,4
259,752	44,93
259,964	57,95
260,175	-45
260,387	13,09
260,598	11,28
260,809	36,62
261,021	0,97
261,232	37,92
261,444	25
261,655	8,68
261,866	-58,62
262,078	-3,74
262,289	-1,13
262,5	112,83
262,712	-21,76
262,923	-67,53
263,134	8,88
263,345	-24,47
263,557	24,8
263,768	34,22
263,979	51,84
264,191	-10,35
264,402	3,47
264,613	7,28
264,824	35,82
265,035	11,68
265,247	8,98
265,458	-91,57
265,669	16,59
265,88	7,28
266,091	-58,62
266,302	61,16
266,514	-83,96
266,725	-4,64
266,936	17,49
267,147	-67,03
267,358	-50,11
267,569	45,23
267,78	66,96
267,991	-38,99
268,202	-2,94
268,414	-5,44
268,625	9,18
268,836	62,86
269,047	-18,06
269,258	-116,5
269,469	56,65
269,68	-0,93
269,891	-34,88
270,102	-78,45
270,313	22,4
270,524	-7,04
270,735	20,1
270,945	65,26
271,156	-2,54
271,367	-8,65
271,578	15,19
271,789	79,58
272	106,22
272,211	-18,66
272,422	-10,95
272,633	91,6
272,844	-4,54
273,054	-13,45
273,265	-20,16
273,476	-66,73
273,687	43,73
273,898	3,17
274,109	7,08
274,319	48,44
274,53	0,37
274,741	52,94
274,952	-76,24
275,162	50,94
275,373	-58,72
275,584	17,39
275,795	-67,53
276,005	8,88
276,216	-50,81
276,427	43,83
276,637	-44,4
276,848	9,58
277,059	-33,28
277,269	62,16
277,48	-2,64
277,691	54,35
277,901	53,34
278,112	12,69
278,323	-86,96
278,533	57,75
278,744	-50,31
278,954	-78,45
279,165	61,66
279,376	77,18
279,586	20,2
279,797	-17,36
280,007	-17,46
280,218	33,72
280,428	-22,07
280,639	34,32
280,849	20,2
281,06	-10,35
281,27	30,31
281,481	-13,65
281,691	-34,68
281,902	14,29
282,112	-5,14
282,322	-54,41
282,533	11,28
282,743	82,59
282,954	61,76
283,164	-27,27
283,374	69,67
283,585	-15,46
283,795	-41,49
284,006	31,81
284,216	56,05
284,426	-6,44
284,637	-58,02
284,847	-27,17
285,057	59,95
285,268	37,82
285,478	-14,75
285,688	21,2
285,898	50,94
286,109	-14,96
286,319	-44,8
286,529	-95,27
286,739	0,97
286,95	53,44
287,16	-43,8
287,37	-5,04
287,58	4,67
287,79	-18,46
288,001	17,09
288,211	17,39
288,421	-12,55
288,631	7,08
288,841	1,67
289,051	11,28
289,261	4,57
289,471	-63,63
289,682	78,58
289,892	58,35
290,102	-38,09
290,312	-17,76
290,522	8,48
290,732	10,68
290,942	-8,25
291,152	37,12
291,362	45,53
291,572	-35,08
291,782	-8,25
291,992	36,02
292,202	11,98
292,412	-47,2
292,622	-21,76
292,832	0,97
293,042	38,82
293,252	-15,26
293,462	-68,33
293,672	-63,63
293,881	-56,82
294,091	42,53
294,301	-3,24
294,511	43,73
294,721	-11,85
294,931	4,07
295,141	-51,41
295,35	18,09
295,56	2,17
295,77	-2,24
295,98	65,06
296,19	24,1
296,4	28,21
296,609	20,9
296,819	-58,92
297,029	-9,55
297,239	1,77
297,448	-20,06
297,658	47,34
297,868	11,68
298,077	-24,57
298,287	10,78
298,497	-2,04
298,706	-20,36
298,916	6,38
299,126	38,32
299,335	-2,84
299,545	-36,89
299,755	-46,4
299,964	91,7
300,174	-63,33
300,384	24,5
300,593	16,49
300,803	35,72
301,012	-35,08
301,222	-33,58
301,431	32,71
301,641	-69,23
301,851	-2,54
302,06	-39,39
302,27	-115,6
302,479	28,51
302,689	-34,78
302,898	-53,41
303,107	0,27
303,317	25,6
303,526	16,39
303,736	-29,58
303,945	-1,03
304,155	4,67
304,364	44,73
304,574	38,12
304,783	4,87
304,992	-17,26
305,202	-44,3
305,411	-74,64
305,62	99,41
305,83	0,47
306,039	-29,18
306,248	-12,65
306,458	-26,97
306,667	-5,44
306,876	56,55
307,086	29,41
307,295	29,91
307,504	32,21
307,713	0,97
307,923	-15,76
308,132	48,34
308,341	-39,09
308,55	-1,03
308,76	13,39
308,969	50,44
309,178	6,08
309,387	4,87
309,596	-8,15
309,805	-42,49
310,015	3,57
310,224	2,27
310,433	-28,78
310,642	-4,94
310,851	-4,74
311,06	-88,66
311,269	30,71
311,478	39,62
311,687	-51,91
311,896	19,8
312,106	28,51
312,315	-13,75
312,524	134,96
312,733	-35,18
312,942	58,25
313,151	-32,58
313,36	34,62
313,569	-97,78
313,778	-3,14
313,987	-77,25
314,195	43,23
314,404	-54,01
314,613	-14,75
314,822	33,52
315,031	21,8
315,24	21,4
315,449	32,91
315,658	2,77
315,867	10,78
316,076	20,5
316,284	-41,69
316,493	138,07
316,702	69,87
316,911	-7,64
317,12	1,17
317,329	22,9
317,537	11,98
317,746	-45,5
317,955	1,07
318,164	-20,66
318,372	53,34
318,581	28,71
318,79	-19,16
318,999	26,61
319,207	21,6
319,416	-19,76
319,625	7,38
319,833	67,56
320,042	29,51
320,251	10,78
320,459	-8,75
320,668	17,79
320,877	-22,57
321,085	-34,18
321,294	-18,56
321,502	6,08
321,711	-49,1
321,92	-81,55
322,128	-49,71
322,337	61,26
322,545	-6,44
322,754	32,61
322,962	90,7
323,171	-14,85
323,379	-53,51
323,588	20,6
323,796	14,19
324,005	-47,2
324,213	14,89
324,422	-23,57
324,63	-35,69
324,839	-29,48
325,047	-43,4
325,256	30,71
325,464	33,62
325,672	4,27
325,881	31,71
326,089	45,13
326,297	-16,66
326,506	5,78
326,714	10,38
326,923	-8,04
327,131	56,15
327,339	42,73
327,548	-6,64
327,756	8,18
327,964	8,48
328,172	1,97
328,381	70,27
328,589	4,07
328,797	0,57
329,005	2,47
329,214	38,02
329,422	54,15
329,63	46,53
329,838	22,1
330,046	-35,48
330,255	42,93
330,463	34,32
330,671	132,96
330,879	43,33
331,087	29,31
331,295	66,26
331,503	-1,03
331,712	-55,31
331,92	142,27
332,128	41,83
332,336	-12,75
332,544	-44,9
332,752	0,57
332,96	-17,16
333,168	-19,56
333,376	-40,59
333,584	-31,78
333,792	-125,01
334	-10,25
334,208	-21,26
334,416	35,62
334,624	-31,28
334,832	14,29
335,04	-11,55
335,248	-76,24
335,456	47,64
335,664	-27,67
335,872	-66,03
336,08	-71,44
336,287	-0,93
336,495	-34,98
336,703	39,22
336,911	-1,84
337,119	-19,16
337,327	7,38
337,535	6,88
337,742	16,19
337,95	59,15
338,158	43,73
338,366	-38,29
338,573	-44
338,781	50,64
338,989	35,82
339,197	10,98
339,404	-78,75
339,612	-34,58
339,82	-25,57
340,028	7,58
340,235	-12,65
340,443	-45,4
340,651	41,73
340,858	-23,77
341,066	50,14
341,274	-55,71
341,481	31,41
341,689	41,63
341,896	7,68
342,104	79,48
342,312	-13,25
342,519	48,94
342,727	25
342,934	57,65
343,142	0,87
343,349	-24,97
343,557	2,27
343,765	-29,48
343,972	6,38
344,18	37,02
344,387	44,33
344,594	29,71
344,802	29,71
345,009	-13,15
345,217	-2,24
345,424	84,49
345,632	17,09
345,839	12,89
346,047	-4,14
346,254	36,92
346,461	9,88
346,669	-51,71
346,876	-61,42
347,083	-88,86
347,291	19,19
347,498	4,97
347,705	27,21
347,913	-48,8
348,12	-5,84
348,327	-4,64
348,535	48,74
348,742	40,53
348,949	-49,4
349,156	-4,54
349,364	27,61
349,571	-28,88
349,778	78,88
349,985	-20,26
350,192	-40,89
350,4	-5,84
350,607	47,13
350,814	44,73
351,021	30,81
351,228	-4,44
351,435	-10,35
351,643	38,22
351,85	-18,76
352,057	-1,54
352,264	49,34
352,471	53,24
352,678	7,58
352,885	35,32
353,092	-43,6
353,299	108,82
353,506	37,52
353,713	-35,99
353,92	-28,78
354,127	-16,26
354,334	9,58
354,541	1,27
354,748	19,39
354,955	47,44
355,162	44,83
355,369	24,3
355,576	-30,78
355,783	6,68
355,99	71,17
356,197	70,47
356,404	30,81
356,611	57,75
356,817	21,8
357,024	6,28
357,231	-19,36
357,438	-48,8
357,645	-15,16
357,852	-23,57
358,058	18,09
358,265	8,68
358,472	-22,27
358,679	1,37
358,885	11,68
359,092	9,28
359,299	-37,19
359,506	-20,96
359,712	4,97
359,919	-5,04
360,126	-6,94
360,333	-3,64
360,539	21,5
360,746	-21,46
360,953	-7,74
361,159	-39,69
361,366	-34,08
361,572	80,78
361,779	6,58
361,986	59,75
362,192	-27,27
362,399	32,81
362,605	-20,66
362,812	15,59
363,019	-19,36
363,225	34,52
363,432	-4,74
363,638	-41,49
363,845	-28,67
364,051	39,02
364,258	15,39
364,464	41,23
364,671	34,22
364,877	43,23
365,084	50,14
365,29	-4,24
365,496	-11,45
365,703	17,29
365,909	4,67
366,116	67,76
366,322	7,38
366,528	8,48
366,735	41,63
366,941	19,7
367,147	40,43
367,354	47,84
367,56	-15,26
367,766	16,29
367,973	-37,79
368,179	-37,89
368,385	15,39
368,592	88,9
368,798	-38,49
369,004	-16,16
369,21	41,63
369,417	10,48
369,623	-25,67
369,829	13,29
370,035	43,33
370,241	37,62
370,448	-46,8
370,654	-1,94
370,86	6,08
371,066	36,02
371,272	-20,26
371,478	46,03
371,684	-59,12
371,891	22,4
372,097	-4,94
372,303	16,89
372,509	42,83
372,715	89
372,921	110,73
373,127	-26,27
373,333	-18,86
373,539	-20,56
373,745	1,57
373,951	-19,86
374,157	-53,81
374,363	-25,17
374,569	-97,88
374,775	-0,73
374,981	-7,04
375,187	9,08
375,393	67,26
375,599	-10,95
375,804	-8,55
376,01	11,38
376,216	-36,29
376,422	25,8
376,628	-8,55
376,834	21,5
377,04	40,43
377,246	40,53
377,451	-8,04
377,657	42,43
377,863	70,57
378,069	-48,3
378,274	25,7
378,48	-19,86
378,686	-12,15
378,892	66,96
379,097	-24,37
379,303	53,64
379,509	17,89
379,715	7,08
379,92	46,03
380,126	-45,2
380,332	-10,55
380,537	-9,15
380,743	-4,54
380,949	9,58
381,154	28,31
381,36	4,87
381,565	60,15
381,771	12,48
381,977	69,97
382,182	-8,85
382,388	28,31
382,593	-1,44
382,799	-1,24
383,004	-44,7
383,21	-32,38
383,415	33,52
383,621	-6,64
383,826	-47
384,032	-9,65
384,237	-40,59
384,443	65,86
384,648	-52,51
384,854	-31,78
385,059	-10,45
385,265	-118,51
385,47	27,51
385,675	13,29
385,881	-13,95
386,086	-4,94
386,291	0,87
386,497	-8,95
386,702	62,46
386,907	20,9
387,113	-18,16
387,318	-37,69
387,523	1,17
387,729	-56,21
387,934	8,08
388,139	-18,66
388,344	-1,54
388,55	52,14
388,755	-42,39
388,96	67,26
389,165	77,28
389,371	25,3
389,576	44,03
389,781	44,03
389,986	1,57
390,191	-20,86
390,396	61,76
390,601	78,58
390,807	-29,18
391,012	55,95
391,217	-45,2
391,422	67,87
391,627	53,64
391,832	24,8
392,037	25,6
392,242	90,4
392,447	-13,45
392,652	17,49
392,857	28,41
393,062	-15,06
393,267	49,24
393,472	54,85
393,677	-0,33
393,882	74,57
394,087	44,03
394,292	11,88
394,497	5,17
394,702	9,18
394,907	6,78
395,112	-58,42
395,317	40,12
395,521	-29,58
395,726	-7,34
395,931	14,19
396,136	-12,65
396,341	-95,07
396,546	63,56
396,75	-55,91
396,955	-69,13
397,16	32,11
397,365	18,19
397,57	39,82
397,774	7,18
397,979	-44,5
398,184	-0,43
398,389	0,67
398,593	54,35
398,798	-45,4
399,003	72,77
399,207	9,08
399,412	-28,78
399,617	57,45
399,821	-34,08
400,026	26,81
400,231	-24,47
400,435	-20,56
400,64	-21,26
400,844	-60,12
401,049	45,03
401,254	28,91
401,458	20,2
401,663	-16,46
401,867	-14,75
402,072	7,88
402,276	-0,73
402,481	-15,46
402,685	18,19
402,89	30,41
403,094	-109,29
403,299	-10,45
403,503	14,39
403,708	-91,27
403,912	-33,28
404,116	-32,58
404,321	5,88
404,525	-57,62
404,73	8,38
404,934	-20,46
405,138	14,79
405,343	29,41
405,547	13,59
405,751	14,49
405,956	-0,53
406,16	80,78
406,364	3,37
406,569	-23,57
406,773	16,09
406,977	-28,17
407,181	22,9
407,386	-14,45
407,59	62,56
407,794	31,11
407,998	17,29
408,202	17,39
408,407	30,11
408,611	17,29
408,815	54,45
409,019	76,58
409,223	-22,97
409,427	52,54
409,632	24,7
409,836	-66,13
410,04	4,17
410,244	-19,56
410,448	-29,78
410,652	37,32
410,856	-10,75
411,06	27,81
411,264	-26,67
411,468	-1,34
411,672	8,68
411,876	79,98
412,08	18,49
412,284	0,37
412,488	4,87
412,692	24,3
412,896	-31,08
413,1	43,33
413,304	38,22
413,508	-14,55
413,712	13,59
413,916	6,98
414,12	6,08
414,323	5,07
414,527	44,63
414,731	-16,06
414,935	36,62
415,139	34,62
415,343	36,12
415,546	16,29
415,75	-18,36
415,954	41,63
416,158	47,84
416,361	13,99
416,565	36,92
416,769	10,88
416,973	17,39
417,176	-2,94
417,38	7,08
417,584	-28,88
417,788	13,79
417,991	23,6
418,195	-20,76
418,398	34,42
418,602	-17,26
418,806	-86,36
419,009	104,72
419,213	-29,58
419,417	-11,35
419,62	-69,43
419,824	35,52
420,027	-4,44
420,231	-26,97
420,434	10,18
420,638	50,64
420,841	-2,34
421,045	43,13
421,248	53,74
421,452	36,42
421,655	-12,05
421,859	-12,25
422,062	-47,4
422,266	-14,05
422,469	5,07
422,673	-3,14
422,876	39,42
423,079	-33,88
423,283	-28,47
423,486	-23,17
423,689	105,82
423,893	35,42
424,096	91,4
424,299	27,91
424,503	-30,68
424,706	-56,62
424,909	35,72
425,113	-22,37
425,316	-28,78
425,519	-41,99
425,722	41,93
425,926	44,63
426,129	0,47
426,332	-40,79
426,535	-1,74
426,739	-31,58
426,942	20,8
427,145	-39,19
427,348	-6,24
427,551	53,04
427,754	30,01
427,957	-16,46
428,161	30,41
428,364	-27,07
428,567	-79,15
428,77	50,74
428,973	-23,47
429,176	-13,95
429,379	-13,85
429,582	48,24
429,785	-19,86
429,988	-66,13
430,191	33,21
430,394	10,88
430,597	52,44
430,8	-2,54
431,003	5,98
431,206	32,31
431,409	60,25
431,612	33,62
431,815	-2,54
432,018	-37,39
432,221	1,17
432,423	-38,29
432,626	-11,95
432,829	1,47
433,032	24,6
433,235	14,09
433,438	-22,37
433,64	-27,17
433,843	80,88
434,046	13,79
434,249	52,84
434,452	-6,24
434,654	-42,19
434,857	-9,05
435,06	-4,44
435,263	-2,04
435,465	-9,35
435,668	17,69
435,871	60,15
436,073	57,05
436,276	12,48
436,479	24,6
436,681	-127,32
436,884	11,08
437,087	69,17
437,289	-25,97
437,492	-2,14
437,694	-18,76
437,897	-67,33
438,1	47,24
438,302	11,58
438,505	50,14
438,707	18,99
438,91	-79,65
439,112	2,17
439,315	-5,54
439,517	-25,17
439,72	8,38
439,922	-13,15
440,125	-31,18
440,327	-28,17
440,529	1,97
440,732	-9,75
440,934	91,3
441,137	-27,17
441,339	-87,36
441,541	8,38
441,744	13,39
441,946	-70,03
442,148	68,97
442,351	-38,59
442,553	6,68
442,755	-5,24
442,958	45,43
443,16	24
443,362	11,88
443,565	-3,44
443,767	50,94
443,969	1,27
444,171	25,6
444,373	1,67
444,576	66,56
444,778	27,51
444,98	-49,51
445,182	48,14
445,384	17,99
445,586	-2,94
445,789	-3,04
445,991	-8,15
446,193	8,78
446,395	-106,69
446,597	1,67
446,799	21,7
447,001	-84,36
447,203	2,97
447,405	55,95
447,607	27,51
447,809	-1,44
448,011	18,39
448,213	-11,55
448,415	-31,48
448,617	70,47
448,819	21,9
449,021	-56,52
449,223	32,11
449,425	47,24
449,627	110,83
449,829	-41,49
450,031	33,31
450,233	92,6
450,435	57,45
450,636	6,18
450,838	11,38
451,04	57,75
451,242	-42,8
451,444	-96,87
451,646	16,19
451,847	47,03
452,049	-22,37
452,251	42,53
452,453	-37,49
452,654	39,72
452,856	35,82
453,058	49,74
453,26	-47,7
453,461	-45,5
453,663	-44,7
453,865	78,38
454,066	-41,39
454,268	15,09
454,47	31,31
454,671	13,09
454,873	2,87
455,074	6,68
455,276	-7,24
455,478	11,78
455,679	4,87
455,881	33,11
456,082	-36,59
456,284	18,79
456,485	-39,39
456,687	59,15
456,888	0,67
457,09	-7,14
457,291	9,18
457,493	-96,37
457,694	74,07
457,896	-46,4
458,097	-46,9
458,299	-36,39
458,5	8,08
458,701	1,37
458,903	50,94
459,104	31,31
459,306	16,69
459,507	3,27
459,708	23
459,91	15,89
460,111	6,78
460,312	4,67
460,514	0,37
460,715	34,32
460,916	-26,67
461,117	-3,44
461,319	-56,92
461,52	-9,75
461,721	-41,89
461,922	7,78
462,124	-15,26
462,325	2,87
462,526	3,07
462,727	-50,31
462,928	-52,61
463,129	-34,28
463,331	-79,45
463,532	64,26
463,733	23
463,934	-4,94
464,135	7,98
464,336	41,93
464,537	-24,17
464,738	31,11
464,939	12,58
465,14	4,17
465,341	-25,87
465,542	38,92
465,743	-8,45
465,944	-14,45
466,145	69,97
466,346	-61,12
466,547	-19,66
466,748	19,09
466,949	-36,59
467,15	0,47
467,351	-47,8
467,552	14,69
467,753	8,58
467,953	-44,8
468,154	59,05
468,355	5,27
468,556	38,62
468,757	-64,93
468,958	-74,74
469,158	37,82
469,359	40,22
469,56	-30,98
469,761	32,81
469,962	-2,74
470,162	-17,16
470,363	54,15
470,564	-26,87
470,764	-26,87
470,965	-20,46
471,166	2,37
471,366	55,25
471,567	-21,36
471,768	-20,66
471,968	31,61
472,169	74,47
472,37	-28,67
472,57	32,31
472,771	-66,93
472,971	-35,08
473,172	-53,21
473,373	-2,14
473,573	-49,81
473,774	65,46
473,974	63,46
474,175	-34,68
474,375	-62,72
474,576	-16,16
474,776	17,39
474,977	-13,55
475,177	52,34
475,377	34,42
475,578	-39,79
475,778	30,51
475,979	30,51
476,179	-61,72
476,379	-55,71
476,58	-6,14
476,78	-64,03
476,981	28,81
477,181	38,02
477,381	6,78
477,582	-63,83
477,782	20,7
477,982	20,7
478,182	-42,9
478,383	38,72
478,583	7,58
478,783	-17,36
478,983	36,52
479,184	24
479,384	-88,66
479,584	-2,94
479,784	84,49
479,984	45,53
480,184	-27,27
480,385	60,15
480,585	74,17
480,785	18,19
480,985	38,82
481,185	72,27
481,385	29,61
481,585	14,89
481,785	-6,74
481,985	-3,64
482,185	2,87
482,385	40,83
482,585	21
482,785	28,01
482,985	50,44
483,185	32,01
483,385	-2,84
483,585	32,01
483,785	78,68
483,985	13,39
484,185	29,71
484,385	2,77
484,585	24,1
484,785	9,88
484,985	27,31
485,185	23,7
485,384	-22,17
485,584	-13,95
485,784	-28,27
485,984	-27,07
486,184	33,31
486,383	-29,88
486,583	-24,37
486,783	-55,61
486,983	8,58
487,183	35,02
487,382	29,01
487,582	8,98
487,782	-7,74
487,981	28,11
488,181	24,9
488,381	14,79
488,58	49,44
488,78	4,97
488,98	-62,42
489,179	11,08
489,379	19,09
489,579	5,37
489,778	17,99
489,978	-13,75
490,177	-16,86
490,377	37,02
490,576	-37,99
490,776	6,28
490,975	-95,57
491,175	-9,05
491,374	-86,36
491,574	-19,96
491,773	48,84
491,973	-15,76
492,172	29,11
492,372	62,96
492,571	-35,79
492,771	27,31
492,97	-15,06
493,169	69,97
493,369	48,24
493,568	77,68
493,767	8,48
493,967	-4,34
494,166	-8,55
494,365	19,6
494,565	33,72
494,764	66,96
494,963	-34,98
495,163	-29,28
495,362	26,61
495,561	-32,68
495,76	26,1
495,959	60,65
496,159	-25,47
496,358	-31,48
496,557	-63,43
496,756	32,31
496,955	7,98
497,155	76,18
497,354	1,57
497,553	28,51
497,752	48,84
497,951	58,75
498,15	70,07
498,349	8,88
498,548	33,62
498,747	30,41
498,946	-22,37
499,145	-0,23
499,344	61,96
499,543	11,88
499,742	36,62
499,941	56,45
500,14	23,2
500,339	-16,66
500,538	0,47
500,737	-22,97
500,936	-71,24
501,135	-2,24
501,334	34,22
501,533	73,27
501,732	14,99
501,931	-48
502,129	-10,15
502,328	-84,16
502,527	-10,05
502,726	-34,18
502,925	59,45
503,123	-54,81
503,322	-8,15
503,521	17,79
503,72	-23,37
503,919	29,41
504,117	19,19
504,316	21,8
504,515	-10,05
504,713	-54,41
504,912	-1,84
505,111	8,18
505,309	-4,84
505,508	15,79
505,707	0,37
505,905	-3,44
506,104	49,94
506,302	-50,01
506,501	-47,3
506,7	-32,08
506,898	40,22
507,097	4,67
507,295	-46,7
507,494	-9,45
507,692	-2,64
507,891	46,73
508,089	-13,75
508,288	-41,29
508,486	-56,92
508,685	-55,41
508,883	60,05
509,082	13,89
509,28	-35,89
509,478	-62,82
509,677	-6,24
509,875	78,78
510,073	-2,04
510,272	63,16
510,47	-26,57
510,669	31,51
510,867	60,96
511,065	19,29
511,263	38,82
511,462	22,8
511,66	-44,9
511,858	-35,69
512,056	-12,85
512,255	-58,82
512,453	61,46
512,651	-23,07
512,849	22,4
513,048	52,54
513,246	-19,06
513,444	-62,72
513,642	61,16
513,84	3,97
514,038	29,11
514,236	30,61
514,435	84,89
514,633	-14,05
514,831	38,32
515,029	0,97
515,227	11,88
515,425	45,33
515,623	48,54
515,821	32,31
516,019	57,05
516,217	-18,26
516,415	9,98
516,613	15,69
516,811	-2,94
517,009	32,01
517,207	35,82
517,405	61,76
517,602	-14,45
517,8	56,35
517,998	-21,87
518,196	49,84
518,394	47,74
518,592	26,1
518,79	-6,14
518,987	57,45
519,185	-30,18
519,383	44,83
519,581	10,08
519,779	7,88
519,976	-24,07
520,174	19,8
520,372	18,79
520,57	-51,71
520,767	18,39
520,965	15,99
521,163	-12,25
521,36	-53,11
521,558	76,28
521,756	-29,28
521,953	-22,17
522,151	-32,18
522,349	-12,15
522,546	40,53
522,744	7,48
522,941	35,32
523,139	-8,75
523,336	20,2
523,534	24,9
523,731	-9,15
523,929	-26,07
524,126	-3,04
524,324	-15,76
524,521	27,21
524,719	-17,66
524,916	-8,85
525,114	33,42
525,311	12,99
525,509	-0,63
525,706	25,7
525,903	-15,96
526,101	-71,74
526,298	47,34
526,496	-5,54
526,693	-1,44
526,89	0,37
527,088	21,3
527,285	-34,18
527,482	66,16
527,679	51,04
527,877	16,79
528,074	37,22
528,271	11,08
528,468	12,18
528,666	21
528,863	64,56
529,06	79,68
529,257	11,28
529,454	-6,24
529,652	76,38
529,849	32,41
530,046	48,54
530,243	20,7
530,44	61,86
530,637	-21,76
530,834	35,92
531,031	47,64
531,228	0,37
531,425	63,56
531,622	39,62
531,819	5,78
532,016	14,09
532,213	3,07
532,41	58,85
532,607	45,73
532,804	13,59
533,001	45,43
533,198	-4,84
533,395	-38,49
533,592	13,69
533,789	-54,41
533,986	40,83
534,183	25,7
534,38	-95,27
534,576	-37,99
534,773	58,85
534,97	-15,16
535,167	27,21
535,364	34,72
535,561	32,31
535,757	-44,2
535,954	-24,27
536,151	-14,15
536,348	8,68
536,544	3,47
536,741	88,29
536,938	61,56
537,134	9,78
537,331	-30,68
537,528	32,01
537,724	65,56
537,921	55,65
538,118	15,79
538,314	-62,32
538,511	23,1
538,707	-7,24
538,904	44,03
539,101	-22,77
539,297	56,75
539,494	-26,67
539,69	63,86
539,887	-15,36
540,083	-14,05
540,28	48,54
540,476	10,68
540,673	1,67
540,869	-49,4
541,066	21,5
541,262	-29,78
541,458	27,41
541,655	-5,54
541,851	-4,24
542,048	-51,01
542,244	-28,47
542,44	64,06
542,637	17,79
542,833	43,73
543,029	-56,21
543,226	-23,97
543,422	33,01
543,618	-12,45
543,814	23
544,011	28,81
544,207	50,34
544,403	39,92
544,599	-1,34
544,796	49,24
544,992	32,21
545,188	7,58
545,384	79,38
545,58	36,82
545,776	22,1
545,972	-48,6
546,169	31,61
546,365	3,97
546,561	37,02
546,757	-18,46
546,953	10,68
547,149	17,79
547,345	23,5
547,541	-10,55
547,737	33,21
547,933	29,01
548,129	13,79
548,325	69,67
548,521	26,61
548,717	-26,67
548,913	39,32
549,109	-17,46
549,305	31,51
549,501	41,83
549,697	-0,43
549,892	-10,65
550,088	35,12
550,284	-20,66
550,48	-20,56
550,676	7,38
550,872	12,18
551,067	30,41
551,263	-53,61
551,459	-28,88
551,655	-22,07
551,85	-13,65
552,046	46,03
552,242	-12,75
552,438	-30,68
552,633	-0,23
552,829	-11,85
553,025	31,11
553,22	20,4
553,416	-67,83
553,612	20,3
553,807	51,04
554,003	112,63
554,198	115,13
554,394	-5,44
554,59	21,5
554,785	42,53
554,981	-44,9
555,176	74,07
555,372	64,36
555,567	-56,72
555,763	25,8
555,958	43,73
556,154	-19,76
556,349	27,01
556,545	18,49
556,74	31,71
556,936	0,57
557,131	96,41
557,326	46,63
557,522	111,83
557,717	14,79
557,912	61,76
558,108	47,44
558,303	1,27
558,498	100,01
558,694	1,17
558,889	12,89
559,084	-37,69
559,28	27,31
559,475	-11,35
559,67	37,02
559,865	30,41
560,061	31,21
560,256	1,27
560,451	2,17
560,646	4,57
560,841	-4,54
561,037	-5,54
561,232	7,68
561,427	-19,96
561,622	7,38
561,817	7,48
562,012	37,62
562,207	53,44
562,402	-25,87
562,597	38,62
562,792	-14,15
562,987	101,31
563,182	44,43
563,377	95,4
563,572	3,27
563,767	43,23
563,962	6,68
564,157	53,84
564,352	40,83
564,547	12,38
564,742	59,35
564,937	-41,49
565,132	29,91
565,327	8,28
565,522	44,33
565,716	45,13
565,911	23,3
566,106	49,44
566,301	17,69
566,496	20,2
566,691	-64,63
566,885	8,98
567,08	114,43
567,275	74,78
567,47	157,7
567,664	224,29
567,859	237,41
568,054	243,12
568,248	214,58
568,443	231,3
568,638	140,17
568,832	237,31
569,027	125,75
569,222	18,59
569,416	-36,29
569,611	23
569,805	78,88
570	-35,28
570,195	-2,84
570,389	-15,96
570,584	11,78
570,778	51,64
570,973	68,17
571,167	39,52
571,362	38,22
571,556	56,35
571,751	2,67
571,945	-6,74
572,139	-12,15
572,334	71,87
572,528	-12,65
572,723	36,12
572,917	21,6
573,111	11,98
573,306	13,59
573,5	26,4
573,694	41,93
573,889	12,18
574,083	-0,33
574,277	27,51
574,472	-22,17
574,666	27,61
574,86	33,42
575,054	50,04
575,249	1,17
575,443	72,67
575,637	20,3
575,831	78,88
576,025	25,1
576,219	98,81
576,414	0,87
576,608	68,07
576,802	8,48
576,996	99,21
577,19	53,14
577,384	58,85
577,578	26,4
577,772	53,24
577,966	71,97
578,16	24,6
578,354	37,92
578,548	-6,84
578,742	32,31
578,936	67,26
579,13	14,49
579,324	61,96
579,518	18,59
579,712	52,14
579,906	-3,34
580,1	90
580,294	40,33
580,488	18,39
580,682	115,03
580,875	149,08
581,069	68,87
581,263	78,18
581,457	206,17
581,651	84,09
581,845	89,1
582,038	125,15
582,232	150,58
582,426	152,89
582,62	100,81
582,813	80,78
583,007	125,05
583,201	134,36
583,394	120,54
583,588	43,73
583,782	179,43
583,975	142,27
584,169	139,47
584,363	158,2
584,556	208,97
584,75	147,58
584,943	151,49
585,137	188,64
585,33	166,61
585,524	160,7
585,718	196,55
585,911	232,3
586,105	230,2
586,298	215,18
586,491	207,57
586,685	277,57
586,878	390,83
587,072	547,96
587,265	977,88
587,459	3030,36
587,652	9447,16
587,845	19112,17
588,039	27915,53
588,232	39238,65
588,426	53135,89
588,619	59431,32
588,812	57395,27
589,005	57264,78
589,199	54433,87
589,392	42887,04
589,585	31907,12
589,779	23112,07
589,972	16522,12
590,165	10783
590,358	6783,9
590,551	4235,61
590,745	2770,88
590,938	1874,48
591,131	1241,37
591,324	833,78
591,517	661,53
591,71	479,16
591,904	346,37
592,097	326,04
592,29	318,83
592,483	169,41
592,676	251,13
592,869	192,85
593,062	196,05
593,255	180,63
593,448	154,99
593,641	190,94
593,834	198,96
594,027	64,86
594,22	105,22
594,413	105,22
594,606	82,79
594,799	122,44
594,992	107,52
595,184	94,6
595,377	5,27
595,57	77,08
595,763	104,02
595,956	61,96
596,149	118,14
596,341	151,19
596,534	-38,29
596,727	72,67
596,92	144,48
597,113	104,42
597,305	149,28
597,498	58,75
597,691	97,71
597,883	79,68
598,076	6,78
598,269	43,93
598,462	66,36
598,654	127,85
598,847	101,21
599,039	46,63
599,232	107,62
599,425	7,68
599,617	40,02
599,81	48,54
600,002	115,93
600,195	61,26
600,387	81,99
600,58	47,74
600,772	17,39
600,965	-4,44
601,157	65,16
601,35	62,26
601,542	44,23
601,735	40,22
601,927	-22,87
602,12	-20,86
602,312	94,2
602,504	-12,95
602,697	41,13
602,889	27,41
603,082	16,79
603,274	33,11
603,466	39,62
603,659	65,76
603,851	57,85
604,043	-4,74
604,235	-34,88
604,428	78,58
604,62	33,82
604,812	20,4
605,004	111,93
605,197	34,52
605,389	44,93
605,581	47,54
605,773	-4,44
605,965	33,31
606,157	19,8
606,349	7,68
606,542	-7,34
606,734	2,77
606,926	53,74
607,118	97,91
607,31	80,88
607,502	44,13
607,694	90,5
607,886	7,38
608,078	-9,35
608,27	19,29
608,462	77,18
608,654	53,34
608,846	28,81
609,038	-34,88
609,23	33,62
609,422	21,4
609,614	-31,58
609,805	47,13
609,997	-26,37
610,189	-38,39
610,381	-14,75
610,573	14,59
610,765	-17,96
610,957	-5,14
611,148	26,61
611,34	22,8
611,532	55,45
611,724	57,35
611,915	24,8
612,107	5,07
612,299	36,42
612,491	17,79
612,682	123,05
612,874	-0,53
613,066	77,48
613,257	12,89
613,449	-41,99
613,64	76,68
613,832	22,5
614,024	45,63
614,215	77,28
614,407	92,8
614,598	-18,66
614,79	98,01
614,981	88,49
615,173	59,65
615,364	48,74
615,556	4,07
615,747	105,92
615,939	79,68
616,13	57,85
616,322	105,32
616,513	-32,78
616,705	-41,59
616,896	56,55
617,087	14,99
617,279	-36,89
617,47	21,8
617,661	13,59
617,853	-2,24
618,044	16,39
618,235	0,27
618,427	102,42
618,618	-0,73
618,809	-7,44
619	7,88
619,192	51,54
619,383	35,72
619,574	68,07
619,765	-15,96
619,957	-8,75
620,148	27,31
620,339	-62,82
620,53	-7,44
620,721	-22,87
620,912	12,18
621,103	68,47
621,294	2,67
621,485	54,75
621,677	38,92
621,868	-4,94
622,059	72,27
622,25	47,03
622,441	-33,28
622,632	11,18
622,823	43,33
623,014	-44,9
623,205	30,51
623,395	21,5
623,586	32,41
623,777	-16,66
623,968	-4,34
624,159	-56,62
624,35	32,41
624,541	-43,7
624,732	-7,24
624,923	66,46
625,113	-7,24
625,304	13,19
625,495	28,61
625,686	-47,9
625,877	-3,84
626,067	47,84
626,258	9,98
626,449	27,51
626,639	61,86
626,83	-7,84
627,021	71,97
627,211	25,9
627,402	-0,03
627,593	-104,38
627,783	-4,14
627,974	-35,08
628,165	-83,55
628,355	-79,05
628,546	28,51
628,736	-1,13
628,927	29,91
629,117	-70,94
629,308	29,91
629,498	-4,84
629,689	-2,34
629,879	85,29
630,07	-15,06
630,26	-17,86
630,451	15,79
630,641	12,38
630,832	7,78
631,022	-50,91
631,212	67,06
631,403	-12,65
631,593	73,57
631,784	-65,93
631,974	4,07
632,164	66,56
632,355	-8,25
632,545	23,6
632,735	14,49
632,925	52,24
633,116	-13,25
633,306	-58,42
633,496	48,24
633,686	23,7
633,876	50,84
634,067	2,27
634,257	15,99
634,447	24,1
634,637	-15,56
634,827	-5,84
635,017	-65,63
635,208	8,38
635,398	33,82
635,588	48,64
635,778	-52,11
635,968	44,73
636,158	53,64
636,348	8,98
636,538	-6,54
636,728	22,8
636,918	-10,45
637,108	-5,94
637,298	-45,3
637,488	-99,78
637,678	1,77
637,868	45,13
638,057	-5,74
638,247	-26,87
638,437	-104,18
638,627	-34,08
638,817	29,41
639,007	13,69
639,197	3,27
639,386	35,82
639,576	-32,78
639,766	37,02
639,956	38,52
640,145	-42,39
640,335	28,41
640,525	60,45
640,715	24,6
640,904	-0,43
641,094	-1,44
641,284	-74,54
641,473	-1,74
641,663	-45,2
641,853	-59,22
642,042	68,97
642,232	-14,25
642,421	-2,44
642,611	-30,68
642,801	-6,14
642,99	42,43
643,18	-9,35
643,369	60,55
643,559	-44,9
643,748	27,71
643,938	35,92
644,127	-26,87
644,317	33,62
644,506	32,41
644,695	-16,16
644,885	28,71
645,074	-9,75
645,264	24,8
645,453	47,03
645,642	49,64
645,832	-22,17
646,021	58,95
646,21	46,73
646,4	2,97
646,589	-1,13
646,778	43,23
646,967	-0,03
647,157	-2,74
647,346	-43,9
647,535	0,47
647,724	61,06
647,913	7,68
648,103	49,54
648,292	7,08
648,481	33,01
648,67	37,12
648,859	-100,08
649,048	38,82
649,237	33,31
649,427	16,49
649,616	-34,78
649,805	71,17
649,994	28,81
650,183	-34,78
650,372	-51,01
650,561	15,49
650,75	48,54
650,939	-34,58
651,128	-46,6
651,317	-27,57
651,506	7,18
651,694	13,89
651,883	14,69
652,072	-9,05
652,261	44,73
652,45	-16,66
652,639	27,81
652,828	-12,05
653,016	-25,87
653,205	11,18
653,394	17,69
653,583	-6,14
653,772	-51,31
653,96	-0,93
654,149	47,94
654,338	-2,74
654,527	78,28
654,715	12,18
654,904	-43,8
655,093	-48,7
655,281	24,6
655,47	-67,73
655,658	-25,87
655,847	-16,86
656,036	58,55
656,224	14,79
656,413	33,52
656,601	-65,53
656,79	29,01
656,978	44,23
657,167	51,44
657,355	57,75
657,544	6,28
657,732	44,03
657,921	10,28
658,109	-68,83
658,298	67,36
658,486	-25,87
658,675	37,02
658,863	107,12
659,051	32,01
659,24	-52,11
659,428	25,5
659,616	71,07
659,805	-58,82
659,993	-4,54
660,181	69,37
660,37	-39,39
660,558	-20,76
660,746	23,9
660,934	6,98
661,123	27,81
661,311	-0,63
661,499	16,39
661,687	-43,3
661,875	-3,94
662,064	-78,45
662,252	30,61
662,44	49,04
662,628	3,17
662,816	58,65
663,004	-42,8
663,192	-10,45
663,38	13,19
663,568	47,24
663,756	-18,26
663,944	4,47
664,132	17,29
664,32	-24,97
664,508	8,98
664,696	31,41
664,884	41,03
665,072	33,42
665,26	16,69
665,448	4,47
665,636	2,17
665,824	32,81
666,012	-4,94
666,199	26
666,387	57,75
666,575	57,05
666,763	2,47
666,951	-3,24
667,139	20
667,326	-27,97
667,514	-66,23
667,702	-16,46
667,889	-19,86
668,077	-20,96
668,265	-74,54
668,453	-37,99
668,64	-3,04
668,828	64,36
669,016	-5,24
669,203	-12,05
669,391	39,82
669,578	2,77
669,766	-27,37
669,954	26,2
670,141	39,12
670,329	1,57
670,516	-48,6
670,704	35,82
670,891	73,67
671,079	31,51
671,266	32,41
671,454	49,04
671,641	-3,24
671,828	25
672,016	-27,17
672,203	-18,96
672,391	15,09
672,578	-63,22
672,765	-24,87
672,953	-2,74
673,14	-54,41
673,327	19,9
673,515	24,5
673,702	-27,67
673,889	-68,03
674,077	-26,67
674,264	36,52
674,451	52,24
674,638	-98,18
674,825	-55,61
675,013	38,52
675,2	-60,22
675,387	-22,97
675,574	40,93
675,761	64,76
675,948	-8,35
676,136	52,14
676,323	27,61
676,51	2,47
676,697	63,26
676,884	13,49
677,071	-6,74
677,258	-14,85
677,445	29,11
677,632	-15,56
677,819	-13,05
678,006	51,84
678,193	-30,48
678,38	25,8
678,567	-28,88
678,754	-23,57
678,94	5,88
679,127	21,1
679,314	-31,18
679,501	42,63
679,688	-10,65
679,875	12,89
680,062	-39,59
680,248	72,27
680,435	34,12
680,622	-13,05
680,809	11,68
680,995	-25,37
681,182	-4,04
681,369	-97,17
681,556	40,53
681,742	-47,1
681,929	68,07
682,116	-12,35
682,302	-63,22
682,489	20,1
682,675	34,62
682,862	-36,59
683,049	61,46
683,235	39,32
683,422	-54,01
683,608	57,55
683,795	-37,99
683,981	36,02
684,168	-54,51
684,354	10,98
684,541	-51,51
684,727	-34,98
684,914	-46,4
685,1	50,34
685,287	44,23
685,473	-12,35
685,659	-32,28
685,846	89,1
686,032	-24,17
686,218	12,79
686,405	6,68
686,591	49,34
686,777	-10,05
686,964	10,28
687,15	21,3
687,336	-23,07
687,522	1,17
687,709	34,72
687,895	-38,79
688,081	6,28
688,267	0,67
688,454	-2,04
688,64	20,8
688,826	9,48
689,012	-18,46
689,198	-7,94
689,384	5,67
689,57	-25,57
689,756	7,78
689,942	-42,8
690,128	-26,47
690,314	-0,63
690,501	-46,3
690,687	65,66
690,873	21,2
691,058	17,09
691,244	0,97
691,43	50,44
691,616	63,46
691,802	38,72
691,988	15,19
692,174	72,77
692,36	-31,98
692,546	-11,95
692,732	-24,17
692,917	-23,97
693,103	12,89
693,289	20,6
693,475	-11,05
693,661	-55,81
693,846	-49,1
694,032	15,89
694,218	27,31
694,404	-42,9
694,589	19,7
694,775	34,22
694,961	-6,04
695,146	-3,44
695,332	80,38
695,518	58,25
695,703	103,82
695,889	123,85
696,074	94,5
696,26	57,75
696,446	61,96
696,631	128,25
696,817	100,11
697,002	47,94
697,188	95,1
697,373	76,68
697,559	31,11
697,744	14,79
697,93	-2,94
698,115	36,32
698,3	36,02
698,486	6,08
698,671	8,78
698,857	18,49
699,042	-7,64
699,227	-24,77
699,413	-90,76
699,598	-76,24
699,783	43,83
699,969	-57,52
700,154	-10,25
700,339	23
700,524	19,29
700,71	50,84
700,895	-107,29
701,08	42,93
701,265	16,09
701,45	81,89
701,636	33,62
701,821	-39,59
702,006	65,66
702,191	-13,95
702,376	2,47
702,561	-65,93
702,746	-12,15
702,931	15,99
703,116	65,46
703,301	-9,95
703,486	-1,74
703,671	106,62
703,856	-31,88
704,041	18,99
704,226	8,38
704,411	-38,59
704,596	-348,74
704,781	6,28
704,966	12,18
705,151	2,67
705,336	13,59
705,521	-18,66
705,706	79,88
705,89	35,02
706,075	144,18
706,26	132,36
706,445	140,57
706,63	1,07
706,814	55,55
706,999	111,03
707,184	17,19
707,368	21,3
707,553	14,69
707,738	25,6
707,923	30,71
708,107	-24,57
708,292	-54,21
708,476	-56,92
708,661	-0,53
708,846	-4,64
709,03	-39,39
709,215	-4,64
709,399	13,19
709,584	13,69
709,768	21,6
709,953	-0,93
710,137	47,24
710,322	19,6
710,506	-14,75
710,691	-57,42
710,875	-13,75
711,06	48,64
711,244	10,38
711,429	-61,62
711,613	-51,71
711,797	89,3
711,982	22,9
712,166	26,3
712,35	-65,83
712,535	22,9
712,719	-48,1
712,903	-0,63
713,088	48,94
713,272	-20,96
713,456	27,71
713,64	-71,84
713,824	-1,84
714,009	70,67
714,193	-14,55
714,377	51,24
714,561	26
714,745	3,27
714,929	-10,85
715,113	14,09
715,298	-5,44
715,482	-22,77
715,666	-1,34
715,85	51,64
716,034	17,49
716,218	44,73
716,402	-72,84
716,586	92,5
716,77	-11,75
716,954	44,13
717,138	-27,57
717,322	29,91
717,506	-0,73
717,689	27,01
717,873	33,72
718,057	-11,25
718,241	-86,96
718,425	87,39
718,609	-34,08
718,793	1,87
718,976	-2,34
719,16	15,19
719,344	-41,79
719,528	-29,38
719,711	32,61
719,895	-12,25
720,079	-5,14
720,263	24,4
720,446	57,95
720,63	-29,18
720,814	-37,99
720,997	-75,04
721,181	36,82
721,364	43,13
721,548	-45,7
721,732	-28,98
721,915	45,93
722,099	77,08
722,282	17,19
722,466	-69,53
722,649	-12,95
722,833	-1,54
723,016	-44,1
723,2	33,82
723,383	7,68
723,567	49,14
723,75	-18,46
723,934	-77,35
724,117	-37,49
724,3	-67,23
724,484	-2,04
724,667	6,58
724,85	53,24
725,034	33,21
725,217	5,07
725,4	31,51
725,584	44,83
725,767	37,22
725,95	117,84
726,133	-22,17
726,317	40,73
726,5	30,91
726,683	40,53
726,866	82,39
727,049	55,05
727,232	90,5
727,416	15,99
727,599	81,58
727,782	-20,86
727,965	27,91
728,148	68,67
728,331	45,73
728,514	21,9
728,697	-7,04
728,88	-12,85
729,063	-32,88
729,246	17,99
729,429	-28,17
729,612	8,88
729,795	-2,34
729,978	44,23
730,161	111,93
730,344	3,67
730,526	24,4
730,709	-10,85
730,892	-30,28
731,075	40,43
731,258	-15,66
731,441	26,81
731,623	32,21
731,806	9,68
731,989	6,38
732,172	-99,88
732,354	-20,36
732,537	57,35
732,72	17,39
732,903	-16,36
733,085	-7,74
733,268	46,33
733,451	36,52
733,633	56,15
733,816	86,89
733,998	65,76
734,181	-116,3
734,364	3,37
734,546	-19,96
734,729	41,83
734,911	5,27
735,094	-2,74
735,276	27,61
735,459	-5,04
735,641	-26,87
735,824	-36,09
736,006	78,38
736,188	21,7
736,371	85,89
736,553	41,13
736,736	21,5
736,918	20,5
737,1	36,72
737,283	64,76
737,465	73,07
737,647	117,54
737,83	125,55
738,012	103,12
738,194	144,78
738,376	141,57
738,559	100,01
738,741	57,95
738,923	77,18
739,105	29,11
739,287	7,88
739,469	12,38
739,652	82,89
739,834	4,17
740,016	-8,65
740,198	5,17
740,38	72,97
740,562	-25,07
740,744	-13,65
740,926	-30,58
741,108	34,12
741,29	64,76
741,472	-96,37
741,654	-91,17
741,836	-80,25
742,018	-29,88
742,2	18,69
742,382	-8,15
742,564	-41,29
742,746	3,97
742,928	-10,35
743,109	6,88
743,291	9,68
743,473	-49,51
743,655	-34,78
743,837	37,92
744,019	40,22
744,2	-25,47
744,382	1,77
744,564	-49
744,746	20,5
744,927	48,64
745,109	-74,44
745,291	-43,3
745,472	-52,11
745,654	2,57
745,836	-38,79
746,017	80,38
746,199	-19,46
746,38	-1,44
746,562	63,26
746,744	16,69
746,925	28,81
747,107	83,79
747,288	8,28
747,47	5,27
747,651	11,98
747,833	-43,6
748,014	89,5
748,195	23,8
748,377	52,34
748,558	-18,96
748,74	43,53
748,921	-39,99
749,102	58,05
749,284	83,79
749,465	146,08
749,646	120,74
749,828	111,63
750,009	219,79
750,19	52,74
750,372	205,76
750,553	155,99
750,734	202,66
750,915	152,69
751,096	166,51
751,278	89,1
751,459	127,05
751,64	110,43
751,821	96,81
752,002	94,3
752,183	93,6
752,364	82,09
752,546	57,55
752,727	61,76
752,908	28,71
753,089	-54,21
753,27	60,96
753,451	37,92
753,632	-5,64
753,813	47,24
753,994	28,91
754,175	91,5
754,356	-51,31
754,536	15,69
754,717	1,57
754,898	100,91
755,079	6,68
755,26	50,84
755,441	47,44
755,622	77,08
755,802	2,87
755,983	-60,52
756,164	53,24
756,345	5,57
756,526	49,94
756,706	50,84
756,887	63,86
757,068	117,64
757,248	0,47
757,429	13,59
757,61	-28,17
757,79	110,13
757,971	52,24
758,152	-13,35
758,332	26,2
758,513	21,8
758,693	45,43
758,874	15,39
759,055	42,13
759,235	-28,07
759,416	-4,24
759,596	-26,37
759,777	23,4
759,957	-10,15
760,137	-26,57
760,318	-8,04
760,498	-24,17
760,679	53,44
760,859	32,91
761,039	-7,04
761,22	12,99
761,4	93
761,581	-27,77
761,761	-7,24
761,941	74,17
762,121	45,43
762,302	208,47
762,482	311,32
762,662	508,4
762,842	573,4
763,023	648,01
763,203	614,56
763,383	530,64
763,563	501,59
763,743	331,65
763,923	297,7
764,104	257,94
764,284	179,03
764,464	77,48
764,644	48,84
764,824	12,48
765,004	60,45
765,184	-18,56
765,364	96,31
765,544	124,05
765,724	105,02
765,904	86,79
766,084	129,35
766,264	131,26
766,444	73,87
766,624	72,07
766,804	70,47
766,983	122,64
767,163	37,42
767,343	25,2
767,523	41,43
767,703	51,24
767,883	69,67
768,062	26,4
768,242	-42,09
768,422	27,91
768,602	-17,66
768,781	53,84
768,961	63,26
769,141	12,69
769,32	33,21
769,5	-2,74
769,68	51,34
769,859	23,3
770,039	95,91
770,219	58,85
770,398	-9,55
770,578	-29,68
770,757	37,92
770,937	67,46
771,116	48,14
771,296	96,11
771,475	210,67
771,655	172,72
771,834	179,93
772,014	223,59
772,193	283,78
772,373	169,11
772,552	159,1
772,731	179,63
772,911	125,05
773,09	38,92
773,269	38,42
773,449	23,3
773,628	49,14
773,807	41,93
773,987	-38,39
774,166	32,61
774,345	56,95
774,524	-52,81
774,704	-20,86
774,883	57,65
775,062	-180,8
775,241	43,83
775,42	-3,34
775,6	30,01
775,779	29,81
775,958	-25,17
776,137	-44,1
776,316	15,99
776,495	14,29
776,674	14,69
776,853	70,07
777,032	-32,68
777,211	12,58
777,39	-2,94
777,569	-25,47
777,748	-27,47
777,927	-25,17
778,106	35,42
778,285	-25,77
778,464	64,86
778,643	-40,09
778,822	-8,65
779	0,27
779,179	-21,97
779,358	63,16
779,537	7,08
779,716	34,72
779,894	-47,4
780,073	-16,86
780,252	59,25
780,431	-7,74
780,609	-3,44
780,788	9,98
780,967	-24,67
781,145	-23,37
781,324	44,73
781,503	53,84
781,681	26,71
781,86	4,27
782,039	-4,54
782,217	53,94
782,396	-12,15
782,574	-0,03
782,753	54,65
782,931	-46,3
783,11	-1,34
783,288	-17,46
783,467	25,4
783,645	6,68
783,824	40,83
784,002	-27,47
784,18	1,47
784,359	-61,32
784,537	-36,09
784,716	-26,57
784,894	-34,38
785,072	-54,81
785,251	7,38
785,429	82,29
785,607	-15,46
785,785	33,72
785,964	8,48
786,142	-10,85
786,32	73,27
786,498	12,79
786,677	43,23
786,855	-2,44
787,033	-11,65
787,211	4,97
787,389	61,66
787,567	-16,66
787,745	42,23
787,923	-13,25
788,102	-35,89
788,28	-3,94
788,458	61,56
788,636	23,1
788,814	-14,55
788,992	37,32
789,17	-49,4
789,348	-66,03
789,526	6,18
789,703	32,71
789,881	-15,16
790,059	21,5
790,237	-43,7
790,415	-25,37
790,593	31,71
790,771	4,57
790,949	47,34
791,126	30,91
791,304	63,76
791,482	-18,46
791,66	-26,87
791,837	71,27
792,015	-6,24
792,193	-22,37
792,371	58,75
792,548	-29,48
792,726	30,91
792,904	-71,54
793,081	28,21
793,259	-57,12
793,436	23,9
793,614	79,08
793,792	16,79
793,969	90,7
794,147	69,67
794,324	109,53
794,502	65,66
794,679	127,35
794,857	70,97
795,034	59,45
795,212	56,95
795,389	7,28
795,567	-31,08
795,744	8,98
795,921	4,27
796,099	-39,39
796,276	22,2
796,453	45,53
796,631	-23,57
796,808	-29,18
796,985	-34,78
797,163	46,13
797,34	14,89
797,517	65,66
797,694	-18,56
797,872	-29,08
798,049	4,07
798,226	-49,2
798,403	-15,26
798,58	38,02
798,757	-17,46
798,935	27,71
799,112	-24,37
799,289	14,79
799,466	-64,33
799,643	47,24
799,82	94,8
799,997	107,22
800,174	117,24
800,351	108,72
800,528	147,38
800,705	215,88
800,882	140,97
801,059	154,59
801,236	126,95
801,413	141,77
801,589	48,64
801,766	72,57
801,943	34,12
802,12	100,61
802,297	100,31
802,474	51,24
802,651	-5,44
802,827	1,27
803,004	58,95
803,181	62,46
803,358	15,79
803,534	65,16
803,711	0,97
803,888	-74,64
804,064	57,95
804,241	-28,78
804,418	-25,77
804,594	-25,47
804,771	-9,75
804,947	46,23
805,124	23,2
805,301	-6,54
805,477	-18,76
805,654	-4,14
805,83	3,17
806,007	-44,3
806,183	-23,27
806,36	19,29
806,536	-26,47
806,712	-20,46
806,889	12,99
807,065	37,72
807,242	-68,13
807,418	-5,04
807,594	54,35
807,771	-1,44
807,947	13,19
808,123	19,29
808,3	28,51
808,476	28,91
808,652	-36,59
808,829	-1,24
809,005	26,3
809,181	85,09
809,357	164,51
809,533	168,01
809,71	213,98
809,886	195,05
810,062	162,6
810,238	245,12
810,414	327,64
810,59	406,76
810,766	459,73
810,942	432,99
811,118	567,59
811,294	588,22
811,47	366,5
811,646	274,16
811,822	195,05
811,998	174,52
812,174	50,84
812,35	78,48
812,526	74,67
812,702	3,77
812,878	-19,16
813,054	-1,94
813,23	-5,84
813,405	49,74
813,581	-24,57
813,757	71,17
813,933	23,2
814,109	69,37
814,284	58,05
814,46	-0,93
814,636	66,46
814,812	-38,09
814,987	35,02
815,163	106,32
815,339	-70,54
815,514	-13,75
815,69	-3,24
815,866	29,81
816,041	41,53
816,217	-45
816,392	12,69
816,568	57,85
816,743	-31,38
816,919	120,04
817,094	59,15
817,27	190,34
817,445	283,88
817,621	344,17
817,796	427,59
817,972	391,13
818,147	375,41
818,322	369,2
818,498	574,4
818,673	588,32
818,849	667,03
819,024	694,37
819,199	679,25
819,375	552,67
819,55	350,68
819,725	286,48
819,9	180,13
820,076	217,28
820,251	166,81
820,426	98,81
820,601	118,34
820,776	36,72
820,952	73,77
821,127	70,17
821,302	70,17
821,477	20,4
821,652	83,99
821,827	-29,18
822,002	26,51
822,177	9,48
822,352	-29,18
822,527	-23,57
822,702	-52,61
822,877	-62,72
823,052	0,67
823,227	-21,46
823,402	11,98
823,577	20,4
823,752	23,7
823,927	-22,47
824,102	16,99
824,277	-12,05
824,451	21,4
824,626	-65,13
824,801	-61,62
824,976	98,31
825,151	42,83
825,325	41,53
825,5	86,39
825,675	131,56
825,85	142,37
826,024	141,97
826,199	105,72
826,374	46,73
826,548	23,7
826,723	33,62
826,897	97,91
827,072	-42,29
827,247	51,74
827,421	19,29
827,596	44,33
827,77	-18,16
827,945	1,27
828,119	2,07
828,294	-14,25
828,468	50,14
828,643	-24,97
828,817	-5,74
828,992	5,07
829,166	2,57
829,34	50,94
829,515	75,28
829,689	3,27
829,864	27,81
830,038	36,02
830,212	-36,49
830,386	18,89
830,561	0,67
830,735	-51,11
830,909	-23,27
831,084	-8,25
831,258	33,11
831,432	3,97
831,606	-24,87
831,78	-27,77
831,954	61,96
832,129	36,32
832,303	10,38
832,477	-3,24
832,651	41,53
832,825	-16,26
832,999	-41,49
833,173	80,58
833,347	-47,4
833,521	-6,44
833,695	-56,11
833,869	-57,02
834,043	56,05
834,217	20,4
834,391	-23,87
834,565	-67,63
834,739	-10,85
834,913	58,95
835,086	49,24
835,26	53,14
835,434	38,92
835,608	7,48
835,782	57,15
835,956	-5,04
836,129	55,85
836,303	-32,78
836,477	24,3
836,651	-43,2
836,824	-72,54
836,998	17,39
837,172	22,2
837,345	45,43
837,519	26,2
837,693	55,55
837,866	-6,24
838,04	-47,6
838,213	-103,08
838,387	-25,27
838,56	-3,14
838,734	-3,34
838,907	26,2
839,081	93,6
839,254	27,11
839,428	5,67
839,601	55,05
839,775	29,11
839,948	97,51
840,122	51,14
840,295	122,44
840,468	51,94
840,642	110,63
840,815	77,08
840,988	48,14
841,162	78,28
841,335	125,75
841,508	143,17
841,682	216,98
841,855	129,35
842,028	101,71
842,201	136,16
842,374	160,9
842,548	101,51
842,721	24,5
842,894	12,38
843,067	105,02
843,24	-39,19
843,413	-11,25
843,586	73,87
843,759	29,91
843,932	-24,57
844,105	-24,77
844,278	37,22
844,451	59,65
844,624	-18,66
844,797	19,49
844,97	-27,07
845,143	-95,57
845,316	3,27
845,489	11,18
845,662	12,48
845,835	-34,58
846,008	21,6
846,18	-5,94
846,353	6,38
846,526	18,69
846,699	95,2
846,872	-24,87
847,044	33,82
847,217	-36,79
847,39	-15,86
847,563	41,13
847,735	22,8
847,908	-26,17
848,081	-70,34
848,253	-33,38
848,426	30,11
848,598	8,98
848,771	-7,94
848,944	-36,49
849,116	10,98
849,289	6,08
849,461	11,18
849,634	-27,57
849,806	-41,09
849,979	27,61
850,151	33,01
850,324	6,58
850,496	-14,85
850,668	-56,31
850,841	17,69
851,013	-17,56
851,186	25,5
851,358	50,34
851,53	12,58
851,703	75,88
851,875	-11,05
852,047	65,66
852,219	-56,42
852,392	43,33
852,564	25,2
852,736	-14,55
852,908	71,87
853,081	-19,16
853,253	-58,72
853,425	1,97
853,597	6,28
853,769	1,37
853,941	-11,55
854,113	-31,18
854,285	14,69
854,457	-39,79
854,63	-70,64
854,802	9,98
854,974	12,48
855,146	10,58
855,318	-0,03
855,489	32,31
855,661	51,74
855,833	-3,64
856,005	3,27
856,177	-73,24
856,349	-14,45
856,521	-26,07
856,693	-59,32
856,865	30,61
857,036	40,12
857,208	-27,17
857,38	-13,75
857,552	45,23
857,723	-45,6
857,895	16,99
858,067	25,8
858,239	4,27
858,41	60,05
858,582	-35,18
858,754	60,25
858,925	-19,56
859,097	-28,67
859,268	-30,18
859,44	-2,14
859,612	-33,08
859,783	4,67
859,955	-35,18
860,126	-17,56
860,298	2,27
860,469	-1,34
860,641	-28,17
860,812	17,69
860,983	4,97
861,155	26,51
861,326	37,72
861,498	11,98
861,669	15,19
861,84	69,07
862,012	3,57
862,183	-41,89
862,354	2,47
862,526	10,48
862,697	-64,13
862,868	-48,6
863,039	-15,16
863,211	-15,06
863,382	18,79
863,553	33,52
863,724	21,9
863,895	37,72
864,066	70,17
864,238	21,7
864,409	14,29
864,58	-100,08
864,751	33,01
864,922	-20,36
865,093	29,91
865,264	42,53
865,435	75,88
865,606	-11,85
865,777	11,28
865,948	-30,28
866,119	-2,84
866,29	-11,35
866,461	-17,56
866,632	-16,56
866,802	37,72
866,973	16,49
867,144	-8,04
867,315	-40,89
867,486	-33,48
867,657	-71,74
867,827	-11,75
867,998	-11,85
868,169	-13,25
868,34	-16,66
868,51	53,54
868,681	11,18
868,852	-14,85
869,022	54,05
869,193	40,53
869,364	8,58
869,534	48,84
869,705	15,09
869,875	-10,45
870,046	-21,87
870,217	-31,38
870,387	80,18
870,558	-33,98
870,728	-14,45
870,899	-58,42
871,069	-5,64
871,239	54,25
871,41	-20,96
871,58	27,61
871,751	59,95
871,921	33,82
872,091	-14,85
872,262	2,47
872,432	21,6
872,602	-91,27
872,773	-5,74
872,943	-32,58
873,113	46,03
873,284	-23,57
873,454	-61,62
873,624	12,48
873,794	11,48
873,964	73,97
874,135	-28,07
874,305	48,54
874,475	15,29
874,645	-28,67
874,815	-13,75
874,985	-23,77
875,155	31,31
875,325	11,38
875,495	17,49
875,665	-1,74
875,835	31,61
876,005	-38,09
876,175	52,84
876,345	-3,44
876,515	-59,02
876,685	32,91
876,855	17,29
877,025	51,94
877,195	-8,95
877,365	39,32
877,534	39,22
877,704	-56,92
877,874	58,25
878,044	6,98
878,214	-51,71
878,383	-46
878,553	45,03
878,723	-3,74
878,892	25,7
879,062	45,73
879,232	-37,59
879,401	-52,91
879,571	17,49
879,741	-26,07
879,91	-54,51
880,08	41,53
880,249	62,86
880,419	-36,49
880,589	-45,4
880,758	-34,68
880,928	16,09
881,097	15,99
881,267	14,09
881,436	-41,79
881,605	23,8
881,775	-81,05
881,944	8,98
882,114	-38,59
882,283	-25,97
882,452	-21,46
882,622	10,98
882,791	-78,15
882,96	-40,09
883,13	-33,98
883,299	3,97
883,468	-3,34
883,637	-2,24
883,807	18,59
883,976	-64,13
884,145	32,91
884,314	53,24
884,483	21,5
884,652	-5,04
884,822	-25,77
884,991	44,63
885,16	33,82
885,329	-57,42
885,498	10,18
885,667	-62,42
885,836	-21,46
886,005	5,47
886,174	33,72
886,343	-14,75
886,512	9,18
886,681	12,99
886,85	7,38
887,019	7,18
887,187	-47,3
887,356	0,17
887,525	-9,25
887,694	-30,38
887,863	28,71
888,032	-3,14
888,2	44,13
888,369	5,67
888,538	20,5
888,707	-22,87
888,875	-17,46
889,044	14,99
889,213	49,24
889,381	-24,37
889,55	-79,55
889,719	-41,99
889,887	26,1
890,056	23,4
890,224	-7,34
890,393	19,19
890,562	43,93
890,73	20,8
890,899	-15,76
891,067	39,72
891,236	-10,55
891,404	21,6
891,573	-31,38
891,741	-14,45
891,909	56,75
892,078	-73,14
892,246	-4,34
892,415	52,44
892,583	-11,55
892,751	-35,48
892,92	-1,94
893,088	-35,28
893,256	35,82
893,424	-28,78
893,593	-15,26
893,761	-10,35
893,929	31,21
894,097	24,3
894,265	-45,6
894,434	-39,39
894,602	17,39
894,77	-13,95
894,938	-2,14
895,106	81,99
895,274	-9,55
895,442	28,91
895,61	11,38
895,778	-15,06
895,946	32,91
896,114	-11,95
896,282	-11,45
896,45	9,68
896,618	61,26
896,786	-89,96
896,954	-19,26
897,122	-56,52
897,29	-20,16
897,458	-15,56
897,625	-39,29
897,793	32,71
897,961	8,28
898,129	-74,84
898,297	-33,98
898,464	42,23
898,632	-19,76
898,8	17,29
898,968	-9,35
899,135	35,32
899,303	79,78
899,471	19,29
899,638	-60,02
899,806	26
899,973	38,32
900,141	-63,43
900,309	13,39
900,476	-34,68
900,644	25,9
900,811	-15,16
900,979	61,16
901,146	-54,01
901,314	-30,68
901,481	-15,36
901,649	16,49
901,816	-3,74
901,983	-8,25
902,151	-23,97
