Data from Subt6__5__16-09-41-886.txt Node

Date: Thu Feb 19 16:09:41 CET 2026
User: Versuch 234
Spectrometer: USB4F05580
Trigger mode: 4
Integration Time (sec): 2,500000E-2
Scans to average: 20
Electric dark correction enabled: true
Nonlinearity correction enabled: false
Boxcar width: 0
XAxis mode: Wavelengths
Number of Pixels in Spectrum: 3648
>>>>>Begin Spectral Data<<<<<
197,409	136,27
197,623	136,27
197,837	136,27
198,051	65,17
198,265	63,67
198,479	-3,73
198,693	-23,36
198,907	-29,67
199,122	-32,27
199,336	3,48
199,55	8,39
199,763	6,28
199,977	9,59
200,191	69,58
200,405	29,72
200,619	-16,45
200,833	-21,56
201,047	-6,23
201,261	42,44
201,475	13,69
201,689	17,1
201,903	-48,6
202,117	-12,24
202,331	1,88
202,545	20,4
202,758	11,99
202,972	-10,34
203,186	-41,18
203,4	16,2
203,614	35,13
203,828	-26,36
204,041	18,4
204,255	40,43
204,469	-11,44
204,683	15,8
204,897	-24,76
205,11	-25,96
205,324	-28,77
205,538	-89,55
205,752	-15,45
205,965	20,81
206,179	-9,24
206,393	10,19
206,606	-5,13
206,82	46,04
207,034	-26,76
207,248	9,69
207,461	20
207,675	42,34
207,889	-40,98
208,102	-1,93
208,316	8,79
208,529	-15,45
208,743	36,23
208,957	-4,03
209,17	93,81
209,384	-43,79
209,597	19
209,811	-33,57
210,025	26,91
210,238	-57,91
210,452	25,21
210,665	-42,59
210,879	1,78
211,092	75,68
211,306	-45,19
211,519	-38,88
211,733	-97,47
211,946	85,4
212,16	-7,04
212,373	-32,07
212,587	1,48
212,8	4,58
213,014	3,48
213,227	34,22
213,44	9,09
213,654	55,86
213,867	53,05
214,081	52,35
214,294	-4,73
214,507	-61,31
214,721	47,54
214,934	-30,07
215,148	21,41
215,361	66,97
215,574	-24,26
215,788	-48,6
216,001	-47,49
216,214	-90,56
216,428	-23,46
216,641	9,79
216,854	-44,69
217,067	16,7
217,281	-35,28
217,494	-4,23
217,707	49,25
217,92	-18,75
218,134	8,69
218,347	-8,94
218,56	-5,43
218,773	-36,58
218,986	-5,23
219,2	4,28
219,413	19,8
219,626	-9,64
219,839	13,29
220,052	19,5
220,265	2,68
220,479	0,28
220,692	18,1
220,905	-22,66
221,118	-45,59
221,331	29,12
221,544	-18,85
221,757	-41,18
221,97	-30,67
222,183	-5,63
222,396	88
222,609	-61,51
222,822	50,75
223,035	23,81
223,249	-41,28
223,462	-26,86
223,675	62,17
223,887	-50,6
224,1	-16,95
224,313	-11,34
224,526	23,91
224,739	-7,14
224,952	7,59
225,165	-36,48
225,378	-38,98
225,591	35,03
225,804	-19,55
226,017	-40,18
226,23	-131,82
226,443	-7,14
226,656	35,63
226,868	-46,49
227,081	14,1
227,294	-9,44
227,507	-57,51
227,72	15,9
227,933	-4,43
228,145	68,37
228,358	7,59
228,571	13,29
228,784	-8,14
228,997	-13,85
229,209	28,22
229,422	-23,46
229,635	42,44
229,848	-19,25
230,06	-16,95
230,273	-1,53
230,486	-0,33
230,698	-48,7
230,911	-16,35
231,124	11,79
231,336	-39,58
231,549	-40,28
231,762	-11,44
231,974	22,11
232,187	-8,74
232,4	0,38
232,612	51,85
232,825	31,62
233,038	-27,56
233,25	5,18
233,463	-2,73
233,675	-4,63
233,888	1,88
234,1	39,73
234,313	-4,73
234,526	34,32
234,738	-24,56
234,951	38,53
235,163	-11,44
235,376	-61,61
235,588	-3,33
235,801	-7,54
236,013	-26,66
236,226	-26,46
236,438	-0,23
236,65	-17,05
236,863	-2,23
237,075	61,56
237,288	-71,33
237,5	-21,16
237,713	13,29
237,925	-13,04
238,137	21,01
238,35	-19,35
238,562	-72,53
238,774	-31,67
238,987	67,57
239,199	-45,69
239,411	-22,16
239,624	69,78
239,836	-106,58
240,048	-62,01
240,261	-39,68
240,473	-51,3
240,685	25,81
240,897	-4,93
241,11	42,14
241,322	-45,69
241,534	17,4
241,746	-37,08
241,959	0,78
242,171	-20,55
242,383	5,48
242,595	21,31
242,807	-14,05
243,02	11,69
243,232	1,28
243,444	7,59
243,656	-21,46
243,868	-43,99
244,08	-37,78
244,293	26,91
244,505	-37,98
244,717	-49,3
244,929	-10,04
245,141	-46,29
245,353	0,28
245,565	-11,54
245,777	-30,87
245,989	8,39
246,201	-54,9
246,413	55,46
246,625	-44,29
246,837	-42,69
247,049	44,24
247,261	-5,93
247,473	56,26
247,685	46,74
247,897	33,72
248,109	-12,04
248,321	-39,18
248,533	-11,74
248,745	-3,23
248,957	-47,39
249,169	-32,57
249,381	-19,25
249,593	-45,69
249,804	-44,59
250,016	3,28
250,228	-6,73
250,44	27,92
250,652	45,34
250,864	-14,15
251,075	25,31
251,287	-17,25
251,499	12,69
251,711	15,1
251,923	-67,52
252,134	35,53
252,346	9,59
252,558	-10,94
252,77	-7,94
252,982	-23,76
253,193	50,55
253,405	0,28
253,617	-48,19
253,828	37,63
254,04	39,83
254,252	-22,06
254,463	8,69
254,675	85,4
254,887	-38,58
255,098	18
255,31	8,19
255,522	27,01
255,733	7,59
255,945	45,44
256,157	-36,78
256,368	-7,94
256,58	15,1
256,791	3,58
257,003	45,64
257,214	18,8
257,426	-55,81
257,637	32,92
257,849	59,16
258,061	-1,83
258,272	-7,84
258,484	0,78
258,695	33,12
258,907	-13,34
259,118	14,3
259,329	27,31
259,541	-50,4
259,752	56,86
259,964	32,62
260,175	-45,29
260,387	-2,33
260,598	15,3
260,809	30,62
261,021	-4,93
261,232	28,52
261,444	9,59
261,655	15,8
261,866	-60,21
262,078	-7,04
262,289	-7,94
262,5	109,13
262,712	-32,97
262,923	-52,7
263,134	-4,03
263,345	-12,64
263,557	17,8
263,768	35,93
263,979	38,23
264,191	-11,84
264,402	10,49
264,613	-9,04
264,824	22,61
265,035	-1,23
265,247	14,2
265,458	-90,56
265,669	10,39
265,88	15,8
266,091	-55
266,302	40,93
266,514	-82,74
266,725	9,09
266,936	13,29
267,147	-65,62
267,358	-42,59
267,569	36,13
267,78	71,18
267,991	-54
268,202	-13,44
268,414	-20,45
268,625	2,08
268,836	70,98
269,047	-27,77
269,258	-105,98
269,469	66,57
269,68	-5,53
269,891	-48,5
270,102	-68,32
270,313	5,98
270,524	-27,06
270,735	-8,44
270,945	64,27
271,156	-6,23
271,367	-14,95
271,578	14,3
271,789	71,28
272	107,73
272,211	-38,98
272,422	-11,74
272,633	101,32
272,844	-5,13
273,054	2,28
273,265	-16,25
273,476	-82,64
273,687	24,01
273,898	16,2
274,109	22,11
274,319	42,54
274,53	-7,44
274,741	43,84
274,952	-75,23
275,162	38,83
275,373	-63,52
275,584	26,21
275,795	-67,12
276,005	12,29
276,216	-59,81
276,427	36,93
276,637	-42,09
276,848	-19,65
277,059	-45,89
277,269	59,96
277,48	-8,94
277,691	41,54
277,901	56,86
278,112	2,78
278,323	-97,57
278,533	53,55
278,744	-59,71
278,954	-67,12
279,165	59,46
279,376	53,35
279,586	10,79
279,797	-13,74
280,007	-31,67
280,218	30,82
280,428	-24,16
280,639	21,61
280,849	24,31
281,06	-8,84
281,27	12,79
281,481	-20,35
281,691	-43,89
281,902	-4,13
282,112	-24,76
282,322	-64,22
282,533	15,3
282,743	75,78
282,954	60,56
283,164	-30,97
283,374	69,88
283,585	-37,18
283,795	-51,1
284,006	9,99
284,216	46,44
284,426	-17,45
284,637	-65,82
284,847	-33,17
285,057	51,05
285,268	32,32
285,478	-27,16
285,688	20,5
285,898	44,14
286,109	-10,44
286,319	-53,1
286,529	-96,97
286,739	15,3
286,95	49,95
287,16	-38,18
287,37	-28,87
287,58	12,69
287,79	-16,45
288,001	4,48
288,211	13,29
288,421	-1,33
288,631	20,3
288,841	-8,24
289,051	5,08
289,261	-9,64
289,471	-75,94
289,682	65,77
289,892	54,35
290,102	-36,28
290,312	-30,77
290,522	36,63
290,732	21,91
290,942	1,88
291,152	39,43
291,362	48,45
291,572	-53,6
291,782	-10,44
291,992	43,94
292,202	-4,13
292,412	-41,18
292,622	-31,17
292,832	-5,13
293,042	25,71
293,252	-15,65
293,462	-65,62
293,672	-57,71
293,881	-61,21
294,091	21,71
294,301	-27,77
294,511	43,04
294,721	-39,78
294,931	-12,64
295,141	-72,53
295,35	15,4
295,56	14
295,77	-6,43
295,98	52,25
296,19	6,28
296,4	13,19
296,609	-1,13
296,819	-62,22
297,029	-3,73
297,239	-16,05
297,448	-9,84
297,658	32,22
297,868	14,1
298,077	-49,5
298,287	-10,64
298,497	-9,44
298,706	-20,05
298,916	-14,35
299,126	15,1
299,335	1,58
299,545	-56,21
299,755	-37,08
299,964	94,31
300,174	-54,6
300,384	8,99
300,593	23,41
300,803	54,45
301,012	-35,88
301,222	-41,79
301,431	25,01
301,641	-79,84
301,851	-10,64
302,06	-58,51
302,27	-116,29
302,479	3,08
302,689	-21,96
302,898	-64,12
303,107	15,1
303,317	9,29
303,526	19,6
303,736	-40,08
303,945	-11,94
304,155	-9,64
304,364	34,22
304,574	26,51
304,783	-8,14
304,992	-7,44
305,202	-36,98
305,411	-88,25
305,62	94,61
305,83	18
306,039	-54,3
306,248	-36,88
306,458	-14,55
306,667	-12,84
306,876	53,35
307,086	17,9
307,295	17,5
307,504	27,01
307,713	-4,23
307,923	-31,67
308,132	43,44
308,341	-57,61
308,55	-18,75
308,76	-3,33
308,969	49,35
309,178	-0,33
309,387	6,68
309,596	-24,76
309,805	-49,2
310,015	-5,63
310,224	20,71
310,433	-19,65
310,642	6,68
310,851	-8,74
311,06	-83,95
311,269	33,22
311,478	43,74
311,687	-50
311,896	37,63
312,106	18,2
312,315	-25,66
312,524	126,76
312,733	-42,79
312,942	43,94
313,151	-31,07
313,36	27,21
313,569	-118,9
313,778	-3,83
313,987	-110,89
314,195	46,54
314,404	-53
314,613	-1,43
314,822	13,59
315,031	11,09
315,24	14,6
315,449	14,3
315,658	2,08
315,867	7,79
316,076	13,09
316,284	-51,8
316,493	121,05
316,702	63,97
316,911	-3,93
317,12	-1,33
317,329	-2,73
317,537	12,79
317,746	-48,9
317,955	-10,64
318,164	-35,38
318,372	53,95
318,581	21,41
318,79	-9,44
318,999	31,42
319,207	7,09
319,416	-31,27
319,625	21,61
319,833	45,74
320,042	42,74
320,251	0,68
320,459	-14,65
320,668	5,88
320,877	-23,36
321,085	-30,27
321,294	-5,53
321,502	-0,73
321,711	-61,81
321,92	-84,55
322,128	-64,12
322,337	69,98
322,545	-28,07
322,754	27,01
322,962	79,19
323,171	-24,96
323,379	-54,7
323,588	-8,44
323,796	8,09
324,005	-55,21
324,213	-0,33
324,422	-27,16
324,63	-49,7
324,839	-39,48
325,047	-70,63
325,256	31,92
325,464	31,72
325,672	2,78
325,881	32,72
326,089	34,22
326,297	-12,64
326,506	10,29
326,714	10,69
326,923	-14,85
327,131	53,15
327,339	62,67
327,548	-24,16
327,756	4,58
327,964	1,58
328,172	14,3
328,381	44,54
328,589	-3,83
328,797	-2,73
329,005	-19,05
329,214	23,01
329,422	43,84
329,63	45,94
329,838	33,42
330,046	-24,86
330,255	59,76
330,463	36,23
330,671	128,36
330,879	19,6
331,087	24,81
331,295	44,94
331,503	-20,76
331,712	-52,4
331,92	130,46
332,128	15,6
332,336	-12,24
332,544	-76,84
332,752	21,01
332,96	-9,24
333,168	-4,03
333,376	-37,28
333,584	-32,27
333,792	-141,43
334	-33,07
334,208	-33,27
334,416	30,42
334,624	-39,18
334,832	2,98
335,04	-25,96
335,248	-60,81
335,456	14,9
335,664	-46,09
335,872	-92,56
336,08	-78,24
336,287	6,28
336,495	-70,43
336,703	33,52
336,911	-10,84
337,119	-36,98
337,327	16,4
337,535	12,69
337,742	18,2
337,95	42,94
338,158	40,13
338,366	-60,21
338,573	-46,59
338,781	51,55
338,989	13,59
339,197	11,39
339,404	-67,52
339,612	-49,1
339,82	-42,39
340,028	-10,84
340,235	-19,85
340,443	-41,89
340,651	39,73
340,858	-36,38
341,066	22,41
341,274	-51,3
341,481	31,62
341,689	32,72
341,896	17
342,104	68,77
342,312	-15,45
342,519	39,43
342,727	25,01
342,934	61,36
343,142	-0,43
343,349	-43,49
343,557	-7,44
343,765	-32,97
343,972	-11,24
344,18	13,79
344,387	35,93
344,594	30,62
344,802	19,4
345,009	-25,66
345,217	-14,45
345,424	72,88
345,632	15,4
345,839	10,89
346,047	-10,74
346,254	16,9
346,461	-1,63
346,669	-69,33
346,876	-89,15
347,083	-76,54
347,291	38,83
347,498	-0,33
347,705	33,22
347,913	-65,72
348,12	-2,23
348,327	-34,98
348,535	27,21
348,742	36,93
348,949	-68,92
349,156	-16,85
349,364	1,48
349,571	-23,06
349,778	68,77
349,985	-17,65
350,192	-59,71
350,4	-24,56
350,607	46,44
350,814	39,73
351,021	22,81
351,228	-11,64
351,435	-20,35
351,643	6,28
351,85	-14,75
352,057	-11,34
352,264	27,01
352,471	48,95
352,678	-2,23
352,885	-3,83
353,092	-52,1
353,299	85,8
353,506	32,22
353,713	-43,69
353,92	-20,76
354,127	-25,06
354,334	4,38
354,541	7,19
354,748	16,6
354,955	36,53
355,162	63,97
355,369	34,83
355,576	-41,49
355,783	4,58
355,99	73,88
356,197	45,34
356,404	21,51
356,611	42,94
356,817	17,9
357,024	-7,04
357,231	-35,98
357,438	-31,37
357,645	-12,64
357,852	-13,85
358,058	1,48
358,265	-6,73
358,472	-32,77
358,679	-19,65
358,885	9,49
359,092	-4,73
359,299	-41,69
359,506	-3,93
359,712	6,18
359,919	-16,95
360,126	13,79
360,333	-16,95
360,539	19,9
360,746	-19,65
360,953	-5,93
361,159	-47,39
361,366	-25,96
361,572	69,18
361,779	9,09
361,986	51,85
362,192	-36,08
362,399	31,92
362,605	-35,08
362,812	22,21
363,019	-16,85
363,225	19,5
363,432	-8,94
363,638	-39,98
363,845	-34,78
364,051	20,3
364,258	5,98
364,464	28,72
364,671	29,82
364,877	38,53
365,084	38,33
365,29	-3,43
365,496	-10,84
365,703	0,38
365,909	-17,65
366,116	53,95
366,322	7,29
366,528	-9,94
366,735	51,05
366,941	19,3
367,147	26,21
367,354	36,13
367,56	-16,75
367,766	11,39
367,973	-45,79
368,179	-27,87
368,385	21,31
368,592	74,68
368,798	-50,2
369,004	-5,83
369,21	42,74
369,417	13,09
369,623	-35,28
369,829	10,59
370,035	34,42
370,241	38,63
370,448	-41,18
370,654	-11,54
370,86	11,99
371,066	24,21
371,272	-17,95
371,478	44,14
371,684	-52,5
371,891	19,5
372,097	5,48
372,303	10,89
372,509	55,15
372,715	66,27
372,921	113,04
373,127	-33,57
373,333	-27,16
373,539	-13,54
373,745	-10,94
373,951	-14,15
374,157	-52,1
374,363	-33,67
374,569	-83,05
374,775	-21,06
374,981	-11,94
375,187	-7,94
375,393	76,09
375,599	-2,23
375,804	-16,45
376,01	19,7
376,216	-30,57
376,422	2,28
376,628	-36,78
376,834	13,29
377,04	37,23
377,246	29,12
377,451	-20,65
377,657	29,02
377,863	58,86
378,069	-38,48
378,274	3,78
378,48	-12,64
378,686	-30,87
378,892	64,27
379,097	-40,98
379,303	42,74
379,509	19,6
379,715	2,18
379,92	40,83
380,126	-55,71
380,332	-2,03
380,537	-2,73
380,743	-22,06
380,949	15,1
381,154	46,94
381,36	-11,74
381,565	45,44
381,771	10,39
381,977	70,68
382,182	-26,66
382,388	14,9
382,593	-19,15
382,799	-17,35
383,004	-38,68
383,21	-50,1
383,415	24,51
383,621	-29,77
383,826	-60,61
384,032	-17,45
384,237	-55,61
384,443	58,76
384,648	-49,7
384,854	-28,67
385,059	-10,44
385,265	-130,91
385,47	30,42
385,675	-11,24
385,881	-24,06
386,086	-40,38
386,291	-15,85
386,497	-21,46
386,702	57,86
386,907	8,79
387,113	-47,89
387,318	-41,49
387,523	11,39
387,729	-66,62
387,934	0,58
388,139	-24,16
388,344	0,18
388,55	43,34
388,755	-38,58
388,96	57,36
389,165	67,27
389,371	19,9
389,576	45,74
389,781	38,63
389,986	-4,23
390,191	-14,65
390,396	46,54
390,601	78,29
390,807	-36,78
391,012	32,92
391,217	-79,54
391,422	69,98
391,627	37,83
391,832	22,21
392,037	33,22
392,242	102,62
392,447	-33,17
392,652	2,78
392,857	33,22
393,062	-10,84
393,267	54,95
393,472	37,13
393,677	-4,53
393,882	61,86
394,087	34,73
394,292	-11,74
394,497	6,78
394,702	16,6
394,907	-1,03
395,112	-49,5
395,317	54,55
395,521	-40,48
395,726	-17,15
395,931	16,9
396,136	-29,37
396,341	-106,78
396,546	70,98
396,75	-56,81
396,955	-74,33
397,16	38,93
397,365	-3,03
397,57	36,73
397,774	-16,05
397,979	-39,88
398,184	8,39
398,389	-17,85
398,593	36,63
398,798	-60,61
399,003	52,05
399,207	-18,85
399,412	-34,37
399,617	32,32
399,821	-45,09
400,026	20,4
400,231	-29,17
400,435	-32,57
400,64	-41,59
400,844	-80,64
401,049	36,93
401,254	12,99
401,458	18,7
401,663	-26,06
401,867	-1,63
402,072	2,48
402,276	-17,65
402,481	-9,64
402,685	2,78
402,89	36,83
403,094	-109,88
403,299	-8,14
403,503	17,6
403,708	-100,87
403,912	-37,88
404,116	-30,67
404,321	14,2
404,525	-62,62
404,73	12,29
404,934	-28,37
405,138	8,99
405,343	21,51
405,547	3,58
405,751	-1,83
405,956	17,9
406,16	81,59
406,364	-2,63
406,569	-36,58
406,773	-0,83
406,977	-40,58
407,181	15,1
407,386	-40,28
407,59	69,68
407,794	18,6
407,998	-0,63
408,202	12,99
408,407	14,3
408,611	3,08
408,815	40,53
409,019	62,37
409,223	-36,28
409,427	49,75
409,632	10,39
409,836	-89,45
410,04	7,39
410,244	-23,16
410,448	-29,47
410,652	44,54
410,856	-24,26
411,06	17,4
411,264	-36,68
411,468	-19,55
411,672	3,78
411,876	92,91
412,08	14,5
412,284	-10,64
412,488	-2,13
412,692	18,5
412,896	-45,39
413,1	52,65
413,304	27,92
413,508	-24,36
413,712	16
413,916	16,4
414,12	3,38
414,323	-2,03
414,527	28,02
414,731	-16,75
414,935	28,52
415,139	24,61
415,343	47,44
415,546	1,48
415,75	-24,76
415,954	40,93
416,158	40,03
416,361	26,81
416,565	51,05
416,769	-12,64
416,973	1,78
417,176	-11,24
417,38	-0,03
417,584	-46,19
417,788	19,5
417,991	10,89
418,195	-15,05
418,398	35,73
418,602	-33,97
418,806	-99,77
419,009	87,7
419,213	-19,65
419,417	-12,84
419,62	-75,13
419,824	40,73
420,027	-22,76
420,231	-18,35
420,434	-2,63
420,638	45,94
420,841	-25,96
421,045	20,91
421,248	44,34
421,452	19,9
421,655	-9,64
421,859	-17,25
422,062	-72,33
422,266	-32,27
422,469	5,28
422,673	-13,24
422,876	21,11
423,079	-63,12
423,283	-43,69
423,486	-30,17
423,689	81,49
423,893	23,01
424,096	54,65
424,299	9,19
424,503	-40,98
424,706	-65,42
424,909	18,9
425,113	-44,89
425,316	-29,47
425,519	-59,01
425,722	15,3
425,926	42,74
426,129	9,19
426,332	-59,01
426,535	-1,33
426,739	-52,5
426,942	15,3
427,145	-33,67
427,348	1,08
427,551	50,15
427,754	22,01
427,957	-22,86
428,161	8,29
428,364	-38,28
428,567	-93,56
428,77	46,14
428,973	-43,79
429,176	-11,04
429,379	-8,44
429,582	43,74
429,785	-14,15
429,988	-75,33
430,191	42,34
430,394	-17,85
430,597	32,42
430,8	-16,05
431,003	21,71
431,206	47,44
431,409	33,82
431,612	24,81
431,815	-7,54
432,018	-38,98
432,221	-6,83
432,423	-38,68
432,626	-23,66
432,829	-8,54
433,032	20,5
433,235	6,38
433,438	-16,45
433,64	-33,07
433,843	69,48
434,046	-8,94
434,249	52,75
434,452	-18,35
434,654	-60,61
434,857	-10,44
435,06	-15,55
435,263	-4,73
435,465	-10,74
435,668	-3,03
435,871	58,16
436,073	54,55
436,276	17,5
436,479	9,39
436,681	-122,2
436,884	7,69
437,087	60,46
437,289	-38,98
437,492	10,29
437,694	-25,66
437,897	-69,53
438,1	41,13
438,302	-4,53
438,505	50,65
438,707	20,71
438,91	-77,44
439,112	-6,53
439,315	-26,06
439,517	-23,06
439,72	4,58
439,922	-24,26
440,125	-19,05
440,327	-2,93
440,529	6,18
440,732	-29,97
440,934	78,39
441,137	-53,1
441,339	-96,26
441,541	1,88
441,744	0,38
441,946	-69,03
442,148	47,34
442,351	-44,09
442,553	12,79
442,755	-13,64
442,958	52,95
443,16	24,11
443,362	8,69
443,565	-19,55
443,767	42,94
443,969	2,28
444,171	23,81
444,373	-24,16
444,576	58,16
444,778	15,2
444,98	-46,69
445,182	44,34
445,384	16,2
445,586	-7,84
445,789	-0,63
445,991	-13,85
446,193	-3,03
446,395	-118,3
446,597	-21,96
446,799	34,32
447,001	-96,87
447,203	3,18
447,405	46,24
447,607	23,71
447,809	-6,73
448,011	25,61
448,213	-36,38
448,415	-40,68
448,617	61,86
448,819	4,88
449,021	-61,51
449,223	3,28
449,425	51,65
449,627	106,93
449,829	-51,9
450,031	25,41
450,233	63,57
450,435	47,64
450,636	-14,15
450,838	9,59
451,04	64,67
451,242	-69,53
451,444	-89,45
451,646	8,49
451,847	29,92
452,049	-40,98
452,251	32,32
452,453	-28,97
452,654	35,13
452,856	33,62
453,058	21,51
453,26	-55,51
453,461	-57,91
453,663	-64,62
453,865	67,87
454,066	-41,59
454,268	27,82
454,47	14,5
454,671	25,41
454,873	3,98
455,074	13,09
455,276	-13,85
455,478	6,58
455,679	-1,03
455,881	32,52
456,082	-38,88
456,284	7,99
456,485	-47,89
456,687	62,17
456,888	7,09
457,09	-17,85
457,291	4,28
457,493	-87,55
457,694	47,94
457,896	-47,69
458,097	-47,49
458,299	-44,09
458,5	-1,53
458,701	-16,15
458,903	50,85
459,104	23,81
459,306	21,51
459,507	-10,14
459,708	-0,33
459,91	38,93
460,111	-20,05
460,312	7,99
460,514	-3,83
460,715	37,53
460,916	-14,95
461,117	-13,95
461,319	-66,42
461,52	-18,25
461,721	-57,81
461,922	17
462,124	-36,08
462,325	2,08
462,526	4,38
462,727	-61,81
462,928	-54,4
463,129	-23,16
463,331	-82,34
463,532	52,05
463,733	28,52
463,934	-21,46
464,135	-8,54
464,336	39,63
464,537	-26,86
464,738	19,4
464,939	9,49
465,14	2,18
465,341	-34,17
465,542	20,1
465,743	-24,76
465,944	-5,73
466,145	45,14
466,346	-44,39
466,547	-31,47
466,748	17,8
466,949	-39,18
467,15	2,28
467,351	-60,61
467,552	1,28
467,753	-8,94
467,953	-59,71
468,154	54,15
468,355	-7,14
468,556	42,14
468,757	-65,72
468,958	-78,54
469,158	45,14
469,359	45,94
469,56	-38,48
469,761	28,72
469,962	1,78
470,162	-34,07
470,363	36,23
470,564	-30,07
470,764	-47,89
470,965	-29,97
471,166	6,28
471,366	33,92
471,567	-40,48
471,768	-30,57
471,968	36,03
472,169	66,47
472,37	-28,97
472,57	25,81
472,771	-56,71
472,971	-32,57
473,172	-65,32
473,373	-12,84
473,573	-57,01
473,774	49,15
473,974	56,86
474,175	-33,07
474,375	-73,43
474,576	-5,03
474,776	24,81
474,977	-23,36
475,177	47,34
475,377	30,12
475,578	-43,89
475,778	3,48
475,979	44,24
476,179	-68,92
476,379	-58,51
476,58	-4,83
476,78	-67,92
476,981	3,28
477,181	30,12
477,381	-12,14
477,582	-60,91
477,782	17,7
477,982	5,38
478,182	-43,49
478,383	35,23
478,583	8,09
478,783	-19,95
478,983	33,32
479,184	24,81
479,384	-87,75
479,584	-10,24
479,784	89,2
479,984	48,35
480,184	-48,19
480,385	48,14
480,585	58,26
480,785	5,78
480,985	33,52
481,185	54,45
481,385	32,22
481,585	10,59
481,785	-9,74
481,985	-18,15
482,185	-4,73
482,385	33,42
482,585	14
482,785	11,29
482,985	25,81
483,185	19,8
483,385	-19,15
483,585	38,23
483,785	61,46
483,985	3,38
484,185	29,02
484,385	-9,34
484,585	17,9
484,785	-14,35
484,985	21,41
485,185	16,2
485,384	-31,07
485,584	-17,05
485,784	-19,85
485,984	-29,17
486,184	9,79
486,383	-18,95
486,583	-35,18
486,783	-68,82
486,983	-0,33
487,183	13,79
487,382	13,49
487,582	-11,04
487,782	-23,46
487,981	27,11
488,181	16,4
488,381	11,39
488,58	40,83
488,78	0,08
488,98	-58,11
489,179	12,99
489,379	16
489,579	13,69
489,778	7,39
489,978	-10,54
490,177	-22,86
490,377	25,01
490,576	-46,49
490,776	4,48
490,975	-114,89
491,175	-6,53
491,374	-94,56
491,574	-20,35
491,773	28,52
491,973	-25,46
492,172	40,33
492,372	55,76
492,571	-25,16
492,771	12,69
492,97	-19,75
493,169	66,37
493,369	26,01
493,568	51,65
493,767	-2,93
493,967	2,48
494,166	7,69
494,365	13,29
494,565	25,51
494,764	38,13
494,963	-46,89
495,163	-21,06
495,362	20,5
495,561	-47,49
495,76	3,68
495,959	56,46
496,159	-43,99
496,358	-18,55
496,557	-62,52
496,756	28,62
496,955	3,28
497,155	72,68
497,354	9,49
497,553	15,1
497,752	51,85
497,951	55,86
498,15	48,35
498,349	-7,34
498,548	32,92
498,747	26,81
498,946	-35,98
499,145	-5,03
499,344	66,27
499,543	18,2
499,742	28,12
499,941	43,94
500,14	8,59
500,339	-16,45
500,538	-3,33
500,737	-55,21
500,936	-73,93
501,135	-9,34
501,334	27,11
501,533	73,88
501,732	0,98
501,931	-55,91
502,129	-23,16
502,328	-87,75
502,527	-5,83
502,726	-30,67
502,925	41,64
503,123	-53,6
503,322	-9,24
503,521	10,39
503,72	-31,27
503,919	27,72
504,117	6,08
504,316	2,78
504,515	-29,37
504,713	-66,42
504,912	-10,64
505,111	13,49
505,309	-29,47
505,508	-6,83
505,707	-7,04
505,905	1,38
506,104	24,71
506,302	-72,93
506,501	-44,69
506,7	-23,36
506,898	39,73
507,097	0,88
507,295	-61,91
507,494	-23,16
507,692	-9,24
507,891	54,05
508,089	-27,46
508,288	-37,78
508,486	-72,83
508,685	-57,81
508,883	54,65
509,082	4,98
509,28	-28,87
509,478	-44,99
509,677	-24,06
509,875	77,69
510,073	-1,83
510,272	44,14
510,47	-10,14
510,669	11,19
510,867	61,96
511,065	16
511,263	52,95
511,462	13,69
511,66	-55,41
511,858	-54,2
512,056	-33,87
512,255	-67,02
512,453	40,43
512,651	-43,89
512,849	18,3
513,048	58,26
513,246	-11,34
513,444	-74,13
513,642	45,34
513,84	-4,33
514,038	49,05
514,236	29,42
514,435	85,5
514,633	-35,88
514,831	27,31
515,029	2,58
515,227	-10,24
515,425	44,94
515,623	36,23
515,821	26,41
516,019	45,04
516,217	-18,65
516,415	5,18
516,613	14,9
516,811	-10,84
517,009	20
517,207	10,29
517,405	51,05
517,602	-8,14
517,8	42,74
517,998	-25,36
518,196	24,61
518,394	45,24
518,592	23,51
518,79	-31,07
518,987	51,15
519,185	-20,35
519,383	13,39
519,581	6,68
519,779	-17,65
519,976	-32,67
520,174	19
520,372	11,59
520,57	-58,11
520,767	18,1
520,965	11,59
521,163	-5,73
521,36	-74,43
521,558	71,18
521,756	-27,97
521,953	-34,47
522,151	-52,9
522,349	-21,66
522,546	28,32
522,744	-10,24
522,941	18,6
523,139	-11,24
523,336	20,6
523,534	30,72
523,731	2,58
523,929	-29,07
524,126	-5,23
524,324	-17,25
524,521	13,9
524,719	-26,46
524,916	-9,74
525,114	24,11
525,311	19,7
525,509	0,38
525,706	18,6
525,903	-13,24
526,101	-86,85
526,298	41,44
526,496	-3,63
526,693	0,98
526,89	6,88
527,088	1,88
527,285	-53,2
527,482	35,93
527,679	42,74
527,877	17
528,074	30,22
528,271	27,72
528,468	1,18
528,666	23,91
528,863	57,86
529,06	61,96
529,257	5,78
529,454	1,28
529,652	70,58
529,849	8,79
530,046	36,83
530,243	18,5
530,44	56,16
530,637	-49,3
530,834	7,99
531,031	33,22
531,228	-14,15
531,425	70,78
531,622	13,19
531,819	-12,14
532,016	1,58
532,213	15,1
532,41	41,74
532,607	44,34
532,804	2,68
533,001	34,93
533,198	-0,83
533,395	-35,08
533,592	-17,55
533,789	-66,72
533,986	44,74
534,183	28,22
534,38	-107,08
534,576	-30,27
534,773	51,75
534,97	0,88
535,167	24,21
535,364	8,19
535,561	34,42
535,757	-55,81
535,954	-24,96
536,151	-10,24
536,348	7,69
536,544	-15,65
536,741	81,79
536,938	59,96
537,134	-0,53
537,331	-46,39
537,528	21,81
537,724	71,88
537,921	41,74
538,118	0,98
538,314	-65,02
538,511	16,8
538,707	-1,53
538,904	41,33
539,101	-29,67
539,297	30,72
539,494	-35,38
539,69	35,43
539,887	-25,46
540,083	-7,04
540,28	51,55
540,476	-0,83
540,673	7,19
540,869	-48,4
541,066	14,2
541,262	-49,1
541,458	27,31
541,655	-35,48
541,851	5,78
542,048	-59,41
542,244	-22,56
542,44	57,46
542,637	14,1
542,833	43,54
543,029	-57,81
543,226	-38,08
543,422	21,81
543,618	-27,97
543,814	21,61
544,011	26,11
544,207	40,33
544,403	53,25
544,599	-6,33
544,796	44,34
544,992	31,72
545,188	-10,44
545,384	59,56
545,58	32,72
545,776	13,39
545,972	-34,78
546,169	25,31
546,365	-1,83
546,561	19,4
546,757	-47,99
546,953	6,18
547,149	10,59
547,345	17,2
547,541	-14,75
547,737	33,22
547,933	25,81
548,129	-5,83
548,325	46,64
548,521	10,19
548,717	-36,28
548,913	27,01
549,109	-0,63
549,305	17,6
549,501	23,91
549,697	-4,43
549,892	-28,17
550,088	18,9
550,284	-10,04
550,48	-18,55
550,676	-0,43
550,872	-5,53
551,067	36,83
551,263	-55,41
551,459	-47,99
551,655	9,49
551,85	-18,95
552,046	54,45
552,242	-7,34
552,438	-6,73
552,633	-17,35
552,829	-6,23
553,025	35,23
553,22	11,89
553,416	-84,85
553,612	6,08
553,807	48,55
554,003	87,4
554,198	108,83
554,394	-18,75
554,59	0,78
554,785	41,03
554,981	-66,02
555,176	85,6
555,372	43,04
555,567	-62,22
555,763	-10,94
555,958	40,43
556,154	-34,68
556,349	-1,23
556,545	7,89
556,74	18,2
556,936	-13,24
557,131	104,43
557,326	48,04
557,522	105,13
557,717	2,68
557,912	55,36
558,108	48,35
558,303	-6,03
558,498	97,42
558,694	-1,83
558,889	5,08
559,084	-26,66
559,28	40,63
559,475	-2,43
559,67	38,03
559,865	37,63
560,061	15,2
560,256	-6,23
560,451	18
560,646	-1,23
560,841	9,29
561,037	-13,74
561,232	8,29
561,427	-21,96
561,622	12,89
561,817	0,38
562,012	30,02
562,207	50,05
562,402	-25,96
562,597	42,14
562,792	-5,83
562,987	88,5
563,182	53,45
563,377	81,99
563,572	13,09
563,767	27,92
563,962	-0,93
564,157	54,85
564,352	31,72
564,547	-5,73
564,742	50,65
564,937	-34,37
565,132	19,8
565,327	4,58
565,522	27,72
565,716	28,82
565,911	11,79
566,106	47,04
566,301	6,58
566,496	41,44
566,691	-42,79
566,885	22,01
567,08	144,18
567,275	110,84
567,47	210,58
567,664	297,11
567,859	290,1
568,054	291,5
568,248	285,99
568,443	236,82
568,638	98,22
568,832	208,48
569,027	72,68
569,222	-16,05
569,416	-36,88
569,611	16,6
569,805	77,19
570	-47,49
570,195	4,18
570,389	-7,84
570,584	19,8
570,778	28,32
570,973	69,68
571,167	17,9
571,362	38,03
571,556	72,78
571,751	-5,03
571,945	-0,23
572,139	-17,15
572,334	43,74
572,528	-12,24
572,723	7,99
572,917	4,18
573,111	11,39
573,306	23,61
573,5	17,6
573,694	14,3
573,889	14,4
574,083	-12,04
574,277	1,68
574,472	-27,36
574,666	14,7
574,86	21,61
575,054	53,25
575,249	10,79
575,443	54,75
575,637	24,41
575,831	83,2
576,025	24,61
576,219	102,02
576,414	-0,83
576,608	73,18
576,802	-0,53
576,996	100,22
577,19	44,64
577,384	70,88
577,578	22,21
577,772	54,25
577,966	81,59
578,16	31,22
578,354	19,1
578,548	-11,64
578,742	20,3
578,936	73,28
579,13	19,7
579,324	46,74
579,518	8,99
579,712	51,35
579,906	1,08
580,1	85,8
580,294	20,2
580,488	31,52
580,682	108,73
580,875	155,8
581,069	64,27
581,263	105,93
581,457	216,39
581,651	108,13
581,845	99,12
582,038	148,69
582,232	150,39
582,426	156,6
582,62	95,21
582,813	90,81
583,007	123,85
583,201	132,17
583,394	123,95
583,588	26,71
583,782	154,4
583,975	141,28
584,169	149,49
584,363	166,42
584,556	204,77
584,75	147,39
584,943	149,09
585,137	182,74
585,33	163,11
585,524	150,39
585,718	207,68
585,911	264,16
586,105	246,23
586,298	234,31
586,491	241,12
586,685	337,66
586,878	456,04
587,072	670,75
587,265	1510,36
587,459	5246,68
587,652	16198,56
587,845	28484,17
588,039	41771,43
588,232	56651,5
588,426	62455,21
588,619	62392,32
588,812	63908,82
589,005	63754,99
589,199	62158,48
589,392	48184,12
589,585	30838,08
589,779	16229,7
589,972	9767,33
590,165	5461,19
590,358	3361,15
590,551	2189,85
590,745	1643,96
590,938	1275,22
591,131	925,62
591,324	666,94
591,517	559,69
591,71	456,24
591,904	311,83
592,097	312,03
592,29	295,9
592,483	174,93
592,676	241,02
592,869	191,25
593,062	187,05
593,255	191,05
593,448	143,78
593,641	208,08
593,834	196,46
594,027	41,54
594,22	105,63
594,413	103,02
594,606	95,31
594,799	128,36
594,992	105,73
595,184	101,22
595,377	12,59
595,57	76,29
595,763	109,03
595,956	48,35
596,149	130,86
596,341	127,26
596,534	-39,18
596,727	83,7
596,92	126,06
597,113	81,79
597,305	147,59
597,498	52,15
597,691	107,23
597,883	66,77
598,076	6,28
598,269	51,95
598,462	65,27
598,654	105,23
598,847	108,33
599,039	37,73
599,232	92,51
599,425	14,8
599,617	33,92
599,81	32,02
600,002	104,93
600,195	52,45
600,387	64,57
600,58	38,13
600,772	11,99
600,965	-30,47
601,157	60,46
601,35	44,84
601,542	33,92
601,735	12,09
601,927	-22,26
602,12	-31,97
602,312	105,03
602,504	-18,35
602,697	41,54
602,889	9,19
603,082	6,99
603,274	29,32
603,466	38,23
603,659	66,37
603,851	72,08
604,043	7,69
604,235	-31,97
604,428	69,98
604,62	34,22
604,812	4,28
605,004	103,42
605,197	37,73
605,389	36,43
605,581	28,22
605,773	-8,54
605,965	44,34
606,157	20
606,349	10,39
606,542	-26,66
606,734	-7,14
606,926	40,93
607,118	85,1
607,31	70,28
607,502	46,34
607,694	86
607,886	-18,25
608,078	-32,57
608,27	5,08
608,462	71,98
608,654	41,74
608,846	32,82
609,038	-46,99
609,23	16,5
609,422	24,91
609,614	-40,78
609,805	37,23
609,997	-18,55
610,189	-32,57
610,381	-10,04
610,573	2,08
610,765	-35,68
610,957	-9,14
611,148	17,5
611,34	14,9
611,532	45,94
611,724	42,04
611,915	15,3
612,107	-11,64
612,299	26,41
612,491	-3,93
612,682	100,42
612,874	-20,35
613,066	62,27
613,257	18,3
613,449	-44,59
613,64	61,56
613,832	23,81
614,024	34,32
614,215	69,38
614,407	93,01
614,598	-16,25
614,79	96,41
614,981	85,5
615,173	69,38
615,364	51,25
615,556	7,69
615,747	102,82
615,939	48,65
616,13	63,27
616,322	91,01
616,513	-41,38
616,705	-41,89
616,896	31,32
617,087	16,3
617,279	-47,99
617,47	25,31
617,661	25,91
617,853	-12,44
618,044	-0,13
618,235	-13,14
618,427	96,11
618,618	1,98
618,809	-31,57
619	5,08
619,192	57,86
619,383	48,75
619,574	53,55
619,765	-13,85
619,957	-34,37
620,148	38,93
620,339	-67,22
620,53	0,98
620,721	-23,56
620,912	11,29
621,103	61,76
621,294	12,49
621,485	45,74
621,677	27,41
621,868	-1,03
622,059	67,47
622,25	32,82
622,441	-30,87
622,632	-6,13
622,823	54,15
623,014	-53,3
623,205	36,33
623,395	15,7
623,586	38,23
623,777	-26,06
623,968	-2,73
624,159	-67,22
624,35	17,1
624,541	-54,6
624,732	-26,26
624,923	54,75
625,113	-27,36
625,304	-9,64
625,495	4,18
625,686	-29,27
625,877	1,28
626,067	32,72
626,258	-3,63
626,449	19,3
626,639	48,45
626,83	-9,34
627,021	59,86
627,211	21,11
627,402	-12,24
627,593	-93,96
627,783	-5,63
627,974	-29,27
628,165	-101,77
628,355	-86,55
628,546	6,58
628,736	-15,35
628,927	23,81
629,117	-58,31
629,308	12,29
629,498	-10,34
629,689	2,08
629,879	90,01
630,07	-26,26
630,26	-28,77
630,451	27,01
630,641	10,09
630,832	10,29
631,022	-46,49
631,212	52,05
631,403	2,48
631,593	68,67
631,784	-75,03
631,974	-9,94
632,164	50,65
632,355	-18,65
632,545	2,48
632,735	-2,83
632,925	60,96
633,116	-11,34
633,306	-60,91
633,496	36,23
633,686	6,68
633,876	38,53
634,067	-10,54
634,257	15,9
634,447	18,6
634,637	-29,77
634,827	-17,55
635,017	-74,13
635,208	-1,83
635,398	22,61
635,588	46,04
635,778	-59,01
635,968	25,31
636,158	31,22
636,348	-2,63
636,538	-18,35
636,728	16,1
636,918	-10,14
637,108	-22,96
637,298	-43,79
637,488	-104,58
637,678	-22,36
637,868	43,14
638,057	0,08
638,247	-25,06
638,437	-109,68
638,627	-16,95
638,817	40,13
639,007	22,21
639,197	-18,35
639,386	28,92
639,576	-37,48
639,766	45,54
639,956	31,02
640,145	-42,79
640,335	19,8
640,525	72,48
640,715	4,68
640,904	-19,85
641,094	-7,14
641,284	-89,05
641,473	11,99
641,663	-36,18
641,853	-59,71
642,042	61,16
642,232	-19,45
642,421	-13,85
642,611	-36,48
642,801	-10,94
642,99	43,94
643,18	-24,46
643,369	27,82
643,559	-25,56
643,748	29,32
643,938	39,83
644,127	-30,97
644,317	20,6
644,506	33,32
644,695	-32,57
644,885	7,29
645,074	-20,76
645,264	9,29
645,453	44,94
645,642	40,33
645,832	-30,37
646,021	35,33
646,21	39,83
646,4	-1,93
646,589	-21,86
646,778	37,43
646,967	-4,03
647,157	3,78
647,346	-46,59
647,535	8,09
647,724	52,05
647,913	0,48
648,103	60,06
648,292	10,59
648,481	20,2
648,67	22,21
648,859	-104,58
649,048	41,84
649,237	39,13
649,427	-4,53
649,616	-47,79
649,805	75,18
649,994	24,51
650,183	-41,69
650,372	-62,92
650,561	12,69
650,75	34,73
650,939	-35,58
651,128	-64,12
651,317	-28,37
651,506	-1,73
651,694	5,78
651,883	9,49
652,072	-3,93
652,261	43,24
652,45	-34,88
652,639	6,78
652,828	-16,95
653,016	-15,95
653,205	15,4
653,394	9,99
653,583	-24,66
653,772	-89,05
653,96	13,39
654,149	52,35
654,338	-16,25
654,527	51,35
654,715	-1,23
654,904	-53,8
655,093	-45,89
655,281	7,39
655,47	-67,22
655,658	-37,68
655,847	-16,85
656,036	50,35
656,224	4,08
656,413	39,63
656,601	-79,54
656,79	14,8
656,978	33,32
657,167	21,11
657,355	42,14
657,544	1,38
657,732	50,45
657,921	-9,64
658,109	-66,62
658,298	49,45
658,486	-34,58
658,675	24,11
658,863	73,48
659,051	16,7
659,24	-61,01
659,428	21,41
659,616	73,48
659,805	-65,42
659,993	-4,23
660,181	71,78
660,37	-38,98
660,558	-39,58
660,746	33,62
660,934	14,9
661,123	16,8
661,311	-3,43
661,499	5,38
661,687	-60,61
661,875	-21,06
662,064	-95,66
662,252	23,91
662,44	46,54
662,628	-19,05
662,816	60,76
663,004	-46,19
663,192	-1,83
663,38	13,09
663,568	63,77
663,756	-39,18
663,944	-24,66
664,132	17,2
664,32	-32,47
664,508	1,88
664,696	23,51
664,884	59,66
665,072	23,71
665,26	10,49
665,448	-15,15
665,636	-5,73
665,824	26,51
666,012	-7,04
666,199	-7,04
666,387	42,24
666,575	47,94
666,763	-4,63
666,951	-6,13
667,139	26,81
667,326	-36,28
667,514	-64,72
667,702	-8,64
667,889	-12,24
668,077	-38,88
668,265	-96,67
668,453	-41,99
668,64	-3,13
668,828	41,33
669,016	-1,33
669,203	-26,56
669,391	43,64
669,578	-19,65
669,766	-30,17
669,954	41,84
670,141	22,61
670,329	0,08
670,516	-41,38
670,704	19,1
670,891	63,87
671,079	33,72
671,266	33,12
671,454	43,44
671,641	-21,96
671,828	29,12
672,016	-55
672,203	-53,5
672,391	21,41
672,578	-80,14
672,765	-25,66
672,953	-9,44
673,14	-66,72
673,327	-4,43
673,515	21,31
673,702	-31,67
673,889	-58,01
674,077	-16,35
674,264	48,85
674,451	41,84
674,638	-103,68
674,825	-70,43
675,013	22,71
675,2	-72,73
675,387	-39,98
675,574	43,34
675,761	39,73
675,948	-16,45
676,136	54,65
676,323	7,79
676,51	-13,04
676,697	49,95
676,884	-3,83
677,071	-30,17
677,258	-38,78
677,445	28,62
677,632	-28,07
677,819	-11,94
678,006	60,36
678,193	-33,87
678,38	22,41
678,567	-32,27
678,754	-34,17
678,94	15,9
679,127	25,01
679,314	-52,4
679,501	31,32
679,688	4,58
679,875	4,08
680,062	-39,08
680,248	59,56
680,435	26,81
680,622	-0,33
680,809	11,99
680,995	-35,98
681,182	-0,63
681,369	-118,5
681,556	32,02
681,742	-70,63
681,929	55,05
682,116	-24,66
682,302	-71,73
682,489	20,6
682,675	28,02
682,862	-51,1
683,049	47,44
683,235	41,54
683,422	-66,52
683,608	46,84
683,795	-51,6
683,981	32,82
684,168	-56,31
684,354	-9,34
684,541	-64,62
684,727	-29,47
684,914	-36,58
685,1	45,84
685,287	50,25
685,473	-6,73
685,659	-44,39
685,846	70,18
686,032	-9,64
686,218	-4,53
686,405	10,19
686,591	16,3
686,777	-8,94
686,964	10,29
687,15	9,29
687,336	-27,56
687,522	-9,74
687,709	24,91
687,895	-36,48
688,081	2,98
688,267	-26,46
688,454	-2,63
688,64	15,2
688,826	-1,23
689,012	-22,36
689,198	-28,87
689,384	9,49
689,57	-33,17
689,756	6,78
689,942	-42,19
690,128	-43,29
690,314	-13,74
690,501	-50,6
690,687	56,06
690,873	16,9
691,058	8,89
691,244	-23,16
691,43	47,04
691,616	56,66
691,802	23,11
691,988	-1,33
692,174	74,68
692,36	-30,77
692,546	0,98
692,732	-28,07
692,917	-10,14
693,103	11,29
693,289	23,01
693,475	-8,64
693,661	-61,41
693,846	-40,58
694,032	13,59
694,218	23,21
694,404	-47,79
694,589	-4,23
694,775	40,43
694,961	-0,33
695,146	32,62
695,332	101,72
695,518	95,01
695,703	140,08
695,889	158,5
696,074	155,8
696,26	66,47
696,446	61,96
696,631	115,44
696,817	105,43
697,002	43,74
697,188	46,84
697,373	47,44
697,559	-10,14
697,744	8,29
697,93	-25,36
698,115	33,62
698,3	40,03
698,486	-6,73
698,671	-0,33
698,857	19,1
699,042	-6,53
699,227	-33,77
699,413	-91,06
699,598	-92,26
699,783	47,94
699,969	-69,13
700,154	-18,75
700,339	1,48
700,524	29,82
700,71	38,23
700,895	-110,18
701,08	43,04
701,265	25,01
701,45	70,58
701,636	19,7
701,821	-40,28
702,006	52,95
702,191	-7,44
702,376	-7,94
702,561	-81,04
702,746	-9,04
702,931	1,98
703,116	58,16
703,301	-25,46
703,486	-15,75
703,671	89,3
703,856	-38,08
704,041	15,5
704,226	14,3
704,411	-45,79
704,596	-375,57
704,781	-19,05
704,966	16,1
705,151	10,49
705,336	16,2
705,521	24,71
705,706	102,22
705,89	61,66
706,075	188,25
706,26	138,38
706,445	132,17
706,63	2,08
706,814	50,45
706,999	80,69
707,184	40,73
707,368	-21,66
707,553	5,68
707,738	11,59
707,923	20,71
708,107	-39,48
708,292	-53,8
708,476	-51,9
708,661	14,3
708,846	-22,46
709,03	-60,21
709,215	-6,03
709,399	12,69
709,584	26,71
709,768	27,51
709,953	-16,45
710,137	22,01
710,322	4,78
710,506	-15,45
710,691	-54
710,875	-28,97
711,06	44,44
711,244	3,98
711,429	-69,53
711,613	-49
711,797	71,28
711,982	15,8
712,166	26,41
712,35	-90,36
712,535	11,39
712,719	-70,93
712,903	-1,53
713,088	36,53
713,272	-9,44
713,456	26,11
713,64	-71,63
713,824	-7,74
714,009	49,05
714,193	-26,06
714,377	57,76
714,561	26,01
714,745	-7,04
714,929	-9,04
715,113	15,3
715,298	-12,44
715,482	-41,59
715,666	-12,64
715,85	40,73
716,034	15,6
716,218	34,83
716,402	-71,63
716,586	78,79
716,77	-8,64
716,954	19,6
717,138	-16,45
717,322	27,11
717,506	-19,55
717,689	26,91
717,873	31,32
718,057	-28,67
718,241	-65,82
718,425	89,71
718,609	-35,98
718,793	0,58
718,976	-1,53
719,16	5,58
719,344	-28,87
719,528	-38,68
719,711	26,11
719,895	1,18
720,079	-18,75
720,263	24,61
720,446	41,23
720,63	-41,79
720,814	-46,39
720,997	-64,72
721,181	23,21
721,364	34,73
721,548	-46,49
721,732	-37,38
721,915	19,9
722,099	76,99
722,282	10,39
722,466	-79,14
722,649	-0,63
722,833	-7,54
723,016	-57,21
723,2	43,54
723,383	11,29
723,567	42,84
723,75	-22,26
723,934	-87,75
724,117	-58,31
724,3	-68,72
724,484	-15,05
724,667	-3,73
724,85	43,94
725,034	24,51
725,217	3,58
725,4	32,42
725,584	37,53
725,767	22,91
725,95	116,24
726,133	-27,67
726,317	52,95
726,5	40,83
726,683	61,26
726,866	55,66
727,049	67,27
727,232	73,68
727,416	20,71
727,599	73,08
727,782	-16,35
727,965	20
728,148	69,08
728,331	24,31
728,514	-2,43
728,697	-26,26
728,88	-13,95
729,063	-39,88
729,246	17,8
729,429	-22,86
729,612	-15,95
729,795	-26,36
729,978	49,65
730,161	111,34
730,344	-19,95
730,526	7,99
730,709	-7,44
730,892	-26,96
731,075	16,6
731,258	-14,85
731,441	4,48
731,623	31,92
731,806	-4,33
731,989	-6,94
732,172	-100,47
732,354	-28,27
732,537	62,27
732,72	-1,73
732,903	-17,75
733,085	-23,36
733,268	44,04
733,451	34,32
733,633	30,62
733,816	71,18
733,998	53,45
734,181	-92,06
734,364	-1,13
734,546	-12,74
734,729	33,02
734,911	-13,24
735,094	5,68
735,276	6,88
735,459	-23,16
735,641	-12,74
735,824	-44,59
736,006	60,66
736,188	26,81
736,371	75,28
736,553	39,83
736,736	-4,73
736,918	19,1
737,1	60,36
737,283	111,64
737,465	118,35
737,647	149,89
737,83	163,61
738,012	122,75
738,194	149,19
738,376	140,38
738,559	88,5
738,741	42,04
738,923	48,04
739,105	-8,54
739,287	-9,84
739,469	-0,43
739,652	70,98
739,834	6,99
740,016	-23,06
740,198	2,58
740,38	58,46
740,562	-5,33
740,744	-47,99
740,926	-36,48
741,108	10,59
741,29	56,36
741,472	-89,25
741,654	-116,09
741,836	-92,76
742,018	-44,19
742,2	8,49
742,382	-24,66
742,564	-30,57
742,746	11,59
742,928	-11,74
743,109	-8,64
743,291	11,19
743,473	-60,41
743,655	-19,95
743,837	39,23
744,019	23,01
744,2	-30,87
744,382	0,48
744,564	-35,88
744,746	22,11
744,927	31,42
745,109	-71,43
745,291	-42,89
745,472	-62,82
745,654	11,09
745,836	-54,8
746,017	78,49
746,199	-26,06
746,38	-5,23
746,562	54,35
746,744	12,49
746,925	23,71
747,107	79,49
747,288	-7,94
747,47	-16,85
747,651	23,11
747,833	-65,12
748,014	86,8
748,195	26,51
748,377	55,05
748,558	-13,74
748,74	29,82
748,921	-47,79
749,102	63,07
749,284	94,71
749,465	161,11
749,646	161,61
749,828	155,6
750,009	236,32
750,19	74,88
750,372	229,21
750,553	199,56
750,734	238,62
750,915	186,04
751,096	166,42
751,278	75,68
751,459	130,16
751,64	91,71
751,821	73,98
752,002	75,89
752,183	70,38
752,364	68,67
752,546	49,25
752,727	45,64
752,908	29,82
753,089	-58,21
753,27	64,57
753,451	22,61
753,632	-4,63
753,813	63,27
753,994	29,62
754,175	85,2
754,356	-65,32
754,536	-24,96
754,717	-10,74
754,898	74,68
755,079	12,69
755,26	28,72
755,441	42,64
755,622	68,37
755,802	-4,13
755,983	-71,63
756,164	52,65
756,345	-8,74
756,526	54,35
756,706	55,56
756,887	56,96
757,068	121,25
757,248	1,48
757,429	9,39
757,61	-49,2
757,79	86,1
757,971	43,94
758,152	-24,26
758,332	22,61
758,513	9,29
758,693	24,71
758,874	15,1
759,055	19,4
759,235	-26,66
759,416	3,18
759,596	-42,09
759,777	17,7
759,957	-23,66
760,137	-49,2
760,318	-19,15
760,498	-42,19
760,679	46,14
760,859	22,31
761,039	-21,06
761,22	12,69
761,4	90,91
761,581	-32,67
761,761	-3,73
761,941	95,81
762,121	129,56
762,302	407,47
762,482	542,76
762,662	725,23
762,842	829,68
763,023	863,83
763,203	687,47
763,383	537,65
763,563	483,08
763,743	286,19
763,923	245,33
764,104	171,52
764,284	115,24
764,464	17,2
764,644	18,9
764,824	-8,94
765,004	36,43
765,184	-12,04
765,364	113,64
765,544	147,89
765,724	141,38
765,904	129,86
766,084	160,11
766,264	145,89
766,444	42,24
766,624	73,78
766,804	57,06
766,983	100,22
767,163	19,6
767,343	13,29
767,523	31,02
767,703	41,64
767,883	65,67
768,062	23,71
768,242	-47,49
768,422	25,11
768,602	-14,35
768,781	58,36
768,961	57,36
769,141	46,84
769,32	52,35
769,5	14,3
769,68	42,44
769,859	14,8
770,039	86,7
770,219	48,04
770,398	-27,77
770,578	-31,57
770,757	29,62
770,937	89
771,116	73,08
771,296	130,16
771,475	244,83
771,655	250,14
771,834	246,63
772,014	283,89
772,193	294,5
772,373	177,73
772,552	154,6
772,731	131,87
772,911	95,41
773,09	8,29
773,269	26,11
773,449	11,29
773,628	31,22
773,807	15,9
773,987	-58,01
774,166	12,29
774,345	46,04
774,524	-57,01
774,704	-24,06
774,883	47,84
775,062	-190,3
775,241	45,34
775,42	-25,86
775,6	31,62
775,779	6,99
775,958	-23,66
776,137	-56,01
776,316	-6,33
776,495	4,08
776,674	19,3
776,853	56,86
777,032	-41,69
777,211	2,88
777,39	7,39
777,569	-25,76
777,748	-38,78
777,927	-36,98
778,106	24,81
778,285	-30,27
778,464	48,65
778,643	-42,29
778,822	21,71
779	-10,04
779,179	-20,96
779,358	43,64
779,537	-7,84
779,716	38,13
779,894	-72,63
780,073	12,49
780,252	45,14
780,431	-37,08
780,609	-5,43
780,788	9,39
780,967	-39,18
781,145	-40,48
781,324	22,51
781,503	63,37
781,681	15,4
781,86	4,38
782,039	-42,79
782,217	58,26
782,396	-16,05
782,574	-17,55
782,753	45,74
782,931	-52,1
783,11	9,29
783,288	-26,06
783,467	20,5
783,645	2,18
783,824	21,01
784,002	-34,37
784,18	-13,34
784,359	-73,13
784,537	-34,78
784,716	-40,88
784,894	-44,29
785,072	-66,22
785,251	0,18
785,429	82,39
785,607	-25,16
785,785	32,42
785,964	1,58
786,142	-11,54
786,32	61,76
786,498	3,58
786,677	31,72
786,855	-5,33
787,033	-13,85
787,211	-8,44
787,389	33,82
787,567	-12,54
787,745	42,24
787,923	-2,63
788,102	-41,28
788,28	-10,74
788,458	67,07
788,636	16,2
788,814	-18,45
788,992	37,33
789,17	-47,99
789,348	-68,02
789,526	17,9
789,703	16,7
789,881	-33,57
790,059	23,01
790,237	-45,39
790,415	-26,76
790,593	31,02
790,771	-20,76
790,949	36,03
791,126	10,49
791,304	46,64
791,482	-17,95
791,66	-23,76
791,837	89,81
792,015	-30,77
792,193	-33,47
792,371	56,46
792,548	-44,39
792,726	20,4
792,904	-99,17
793,081	27,62
793,259	-58,91
793,436	9,89
793,614	99,62
793,792	54,55
793,969	123,55
794,147	133,77
794,324	165,62
794,502	90,21
794,679	129,06
794,857	74,28
795,034	39,83
795,212	40,83
795,389	-9,04
795,567	-37,38
795,744	17,3
795,921	14,7
796,099	-39,48
796,276	18,7
796,453	36,33
796,631	-23,16
796,808	-45,49
796,985	-48,4
797,163	61,66
797,34	-7,94
797,517	34,42
797,694	-3,43
797,872	-25,26
798,049	7,79
798,226	-48,09
798,403	-27,16
798,58	41,74
798,757	-33,17
798,935	11,89
799,112	-11,54
799,289	24,21
799,466	-48,8
799,643	70,78
799,82	132,57
799,997	142,38
800,174	147,89
800,351	154,4
800,528	175,23
800,705	255,95
800,882	189,45
801,059	169,62
801,236	137,17
801,413	117,24
801,589	35,93
801,766	55,26
801,943	23,91
802,12	93,51
802,297	76,19
802,474	31,22
802,651	-17,75
802,827	-24,46
803,004	46,14
803,181	49,65
803,358	-0,23
803,534	55,96
803,711	-20,05
803,888	-84,35
804,064	48,24
804,241	-40,08
804,418	-28,77
804,594	-32,87
804,771	-12,04
804,947	47,84
805,124	16,7
805,301	-11,94
805,477	-16,75
805,654	-6,23
805,83	-8,04
806,007	-50,7
806,183	-24,06
806,36	19,6
806,536	-21,76
806,712	-22,26
806,889	10,09
807,065	28,42
807,242	-78,24
807,418	-20,35
807,594	38,13
807,771	-7,14
807,947	3,38
808,123	13,09
808,3	24,01
808,476	30,52
808,652	-52,7
808,829	-15,05
809,005	25,41
809,181	117,65
809,357	202,77
809,533	216,89
809,71	298,91
809,886	268,46
810,062	215,39
810,238	308,22
810,414	469,46
810,59	556,68
810,766	705,6
810,942	760,48
811,118	764,48
811,294	601,75
811,47	291,7
811,646	246,13
811,822	125,46
811,998	104,53
812,174	0,48
812,35	36,33
812,526	29,22
812,702	-7,94
812,878	-40,38
813,054	-33,27
813,23	-18,85
813,405	57,36
813,581	-34,78
813,757	45,64
813,933	19,8
814,109	74,08
814,284	44,04
814,46	-9,84
814,636	50,65
814,812	-33,87
814,987	27,72
815,163	91,41
815,339	-86,85
815,514	-16,85
815,69	3,08
815,866	10,89
816,041	39,33
816,217	-34,17
816,392	5,58
816,568	55,15
816,743	-30,47
816,919	131,77
817,094	144,18
817,27	328,95
817,445	442,12
817,621	517,73
817,796	608,36
817,972	554,68
818,147	447,72
818,322	537,45
818,498	811,35
818,673	799,93
818,849	981,4
819,024	1004,33
819,199	860,42
819,375	518,03
819,55	298,91
819,725	188,15
819,9	125,46
820,076	140,58
820,251	115,34
820,426	49,55
820,601	71,48
820,776	15,7
820,952	35,93
821,127	43,84
821,302	52,05
821,477	9,69
821,652	81,59
821,827	-44,09
822,002	26,81
822,177	10,49
822,352	-40,08
822,527	-40,78
822,702	-58,01
822,877	-75,13
823,052	4,58
823,227	-29,97
823,402	19,8
823,577	14,1
823,752	20,6
823,927	-21,16
824,102	4,58
824,277	-22,46
824,451	13,59
824,626	-61,71
824,801	-56,21
824,976	79,99
825,151	36,23
825,325	59,26
825,5	98,22
825,675	150,69
825,85	176,63
826,024	169,02
826,199	101,62
826,374	29,72
826,548	0,68
826,723	11,49
826,897	84,2
827,072	-42,99
827,247	38,83
827,421	5,88
827,596	25,41
827,77	-21,76
827,945	2,08
828,119	0,98
828,294	-28,57
828,468	33,02
828,643	-32,77
828,817	-15,25
828,992	6,28
829,166	-12,84
829,34	51,55
829,515	71,68
829,689	15,7
829,864	17,1
830,038	23,71
830,212	-55,51
830,386	12,09
830,561	-8,54
830,735	-42,69
830,909	-11,34
831,084	-33,77
831,258	19,6
831,432	-2,73
831,606	-33,37
831,78	-27,97
831,954	59,66
832,129	22,71
832,303	3,08
832,477	-20,76
832,651	44,24
832,825	-11,84
832,999	-46,39
833,173	61,56
833,347	-57,11
833,521	-0,83
833,695	-61,71
833,869	-65,72
834,043	35,43
834,217	20,3
834,391	-17,65
834,565	-87,15
834,739	-20,65
834,913	54,35
835,086	31,12
835,26	53,05
835,434	36,33
835,608	10,49
835,782	42,04
835,956	-12,54
836,129	58,16
836,303	-32,47
836,477	4,58
836,651	-34,78
836,824	-72,03
836,998	16,5
837,172	5,28
837,345	34,12
837,519	21,51
837,693	45,54
837,866	-14,25
838,04	-57,71
838,213	-102,17
838,387	-33,27
838,56	-12,04
838,734	-5,13
838,907	42,44
839,081	90,51
839,254	22,31
839,428	6,18
839,601	51,65
839,775	46,24
839,948	129,36
840,122	105,13
840,295	152,2
840,468	76,69
840,642	124,66
840,815	65,27
840,988	24,71
841,162	82,09
841,335	173,03
841,508	177,53
841,682	241,93
841,855	202,27
842,028	161,71
842,201	161,21
842,374	136,17
842,548	84,4
842,721	-3,93
842,894	-2,43
843,067	72,28
843,24	-47,89
843,413	-22,96
843,586	60,86
843,759	10,89
843,932	-38,88
844,105	-30,17
844,278	26,31
844,451	32,12
844,624	-4,73
844,797	-10,44
844,97	-35,18
845,143	-92,76
845,316	6,18
845,489	-9,84
845,662	-6,13
845,835	-34,78
846,008	23,31
846,18	-32,57
846,353	-20,45
846,526	12,89
846,699	67,17
846,872	-32,87
847,044	21,61
847,217	-42,09
847,39	-23,86
847,563	31,32
847,735	33,52
847,908	-18,35
848,081	-74,03
848,253	-39,28
848,426	45,94
848,598	-8,44
848,771	-17,35
848,944	-44,59
849,116	17,2
849,289	-3,33
849,461	8,19
849,634	-50,5
849,806	-50,2
849,979	18,5
850,151	31,12
850,324	-2,23
850,496	-17,15
850,668	-59,81
850,841	5,98
851,013	-10,74
851,186	32,12
851,358	61,56
851,53	42,64
851,703	77,39
851,875	-2,03
852,047	53,85
852,219	-87,45
852,392	17,8
852,564	28,62
852,736	-37,98
852,908	58,66
853,081	-23,86
853,253	-57,41
853,425	-1,23
853,597	10,19
853,769	16
853,941	-19,55
854,113	-50,4
854,285	-0,23
854,457	-43,29
854,63	-74,73
854,802	11,69
854,974	8,79
855,146	8,59
855,318	7,09
855,489	13,09
855,661	44,44
855,833	-9,44
856,005	-10,84
856,177	-51,9
856,349	-12,54
856,521	-27,56
856,693	-56,61
856,865	12,69
857,036	15
857,208	-15,35
857,38	-27,16
857,552	46,94
857,723	-55,21
857,895	30,32
858,067	18,3
858,239	-2,83
858,41	42,44
858,582	-30,77
858,754	54,85
858,925	-32,57
859,097	-22,86
859,268	-35,28
859,44	-7,64
859,612	-31,07
859,783	3,28
859,955	-40,38
860,126	-26,26
860,298	-8,94
860,469	-21,96
860,641	-45,79
860,812	24,81
860,983	-3,53
861,155	5,18
861,326	33,12
861,498	15,5
861,669	0,08
861,84	56,26
862,012	-6,53
862,183	-36,68
862,354	-11,64
862,526	4,58
862,697	-51,2
862,868	-60,21
863,039	-23,06
863,211	-26,56
863,382	4,98
863,553	21,51
863,724	23,21
863,895	28,12
864,066	81,39
864,238	6,48
864,409	4,28
864,58	-104,78
864,751	39,33
864,922	-13,04
865,093	21,11
865,264	38,93
865,435	47,94
865,606	-16,65
865,777	29,82
865,948	-33,87
866,119	-6,83
866,29	-15,85
866,461	-12,44
866,632	-19,05
866,802	38,13
866,973	3,28
867,144	-21,56
867,315	-58,91
867,486	-43,39
867,657	-68,12
867,827	-16,75
867,998	-19,85
868,169	-8,34
868,34	-18,05
868,51	49,65
868,681	5,88
868,852	-26,46
869,022	34,42
869,193	15,9
869,364	3,28
869,534	41,23
869,705	14,2
869,875	-15,85
870,046	-18,35
870,217	-30,77
870,387	64,07
870,558	-46,29
870,728	-17,05
870,899	-54,9
871,069	-12,54
871,239	36,03
871,41	-35,08
871,58	19,1
871,751	49,75
871,921	14,9
872,091	-32,27
872,262	-8,34
872,432	16
872,602	-105,78
872,773	-18,25
872,943	-43,89
873,113	40,23
873,284	-35,18
873,454	-73,13
873,624	23,81
873,794	12,89
873,964	66,77
874,135	-25,46
874,305	35,23
874,475	23,91
874,645	-40,78
874,815	-21,06
874,985	-15,25
875,155	16,6
875,325	17,7
875,495	21,51
875,665	-3,43
875,835	22,51
876,005	-47,79
876,175	37,73
876,345	-8,44
876,515	-60,01
876,685	31,42
876,855	14,4
877,025	41,44
877,195	-25,26
877,365	28,32
877,534	29,32
877,704	-56,41
877,874	61,46
878,044	7,49
878,214	-61,41
878,383	-67,52
878,553	25,91
878,723	-12,84
878,892	13,59
879,062	34,42
879,232	-46,59
879,401	-40,18
879,571	20,81
879,741	-39,98
879,91	-46,39
880,08	36,83
880,249	46,34
880,419	-31,47
880,589	-76,44
880,758	-39,58
880,928	18,5
881,097	13,19
881,267	7,59
881,436	-57,91
881,605	7,79
881,775	-84,65
881,944	13,09
882,114	-33,47
882,283	-27,16
882,452	-40,38
882,622	-5,73
882,791	-72,83
882,96	-51,3
883,13	-35,28
883,299	-16,65
883,468	-0,13
883,637	-10,94
883,807	15,3
883,976	-66,22
884,145	30,12
884,314	37,93
884,483	15,3
884,652	-5,13
884,822	-23,76
884,991	29,42
885,16	24,91
885,329	-68,32
885,498	-2,83
885,667	-50,7
885,836	-22,46
886,005	-11,84
886,174	36,03
886,343	-16,85
886,512	0,08
886,681	-1,53
886,85	2,58
887,019	-14,15
887,187	-57,01
887,356	-15,25
887,525	-7,54
887,694	-12,44
887,863	28,72
888,032	-27,06
888,2	37,73
888,369	10,99
888,538	-9,64
888,707	-28,77
888,875	-16,45
889,044	4,88
889,213	62,27
889,381	-17,45
889,55	-84,55
889,719	-49,7
889,887	35,93
890,056	3,48
890,224	-9,24
890,393	9,09
890,562	36,53
890,73	37,53
890,899	-14,65
891,067	34,22
891,236	-11,54
891,404	15,5
891,573	-44,89
891,741	-18,05
891,909	46,04
892,078	-70,23
892,246	-15,55
892,415	42,04
892,583	-4,13
892,751	-56,71
892,92	-17,95
893,088	-22,76
893,256	23,41
893,424	-13,95
893,593	-27,87
893,761	-24,66
893,929	29,02
894,097	10,59
894,265	-54,4
894,434	-38,58
894,602	-1,83
894,77	-7,34
894,938	-8,94
895,106	53,25
895,274	-22,96
895,442	19,6
895,61	19,4
895,778	-12,94
895,946	31,22
896,114	-15,75
896,282	-19,45
896,45	3,88
896,618	47,04
896,786	-105,48
896,954	-43,09
897,122	-79,14
897,29	-40,28
897,458	-16,45
897,625	-52,2
897,793	27,62
897,961	-3,23
898,129	-82,64
898,297	-35,08
898,464	34,32
898,632	-10,34
898,8	11,69
898,968	-5,93
899,135	9,29
899,303	90,41
899,471	22,71
899,638	-55,1
899,806	4,08
899,973	35,73
900,141	-52,2
900,309	20,81
900,476	-34,37
900,644	14,2
900,811	-42,59
900,979	59,46
901,146	-72,03
901,314	-36,78
901,481	-32,07
901,649	-8,24
901,816	-17,95
901,983	-15,95
902,151	-20,86
