Data from Subt6__3__16-04-48-626.txt Node

Date: Thu Feb 19 16:04:48 CET 2026
User: Versuch 234
Spectrometer: USB4F05580
Trigger mode: 4
Integration Time (sec): 1,500000E0
Scans to average: 5
Electric dark correction enabled: true
Nonlinearity correction enabled: false
Boxcar width: 0
XAxis mode: Wavelengths
Number of Pixels in Spectrum: 3648
>>>>>Begin Spectral Data<<<<<
197,409	-1065,34
197,623	-1065,34
197,837	-1065,34
198,051	-1155,47
198,265	-1104,6
198,479	768,91
198,693	305,84
198,907	-369,14
199,122	-454,46
199,336	420,01
199,55	469,28
199,763	-609,88
199,977	-20,63
200,191	561,41
200,405	331,88
200,619	-748,08
200,833	-655,15
201,047	437,63
201,261	446,45
201,475	-688,8
201,689	-460,87
201,903	728,86
202,117	1340,14
202,331	-455,26
202,545	-405,19
202,758	688,4
202,972	802,56
203,186	166,44
203,4	-179,66
203,614	609,08
203,828	427,22
204,041	-500,53
204,255	-242,55
204,469	396,37
204,683	447,65
204,897	-570,63
205,11	-494,12
205,324	484,1
205,538	1109,81
205,752	-433,63
205,965	-696,41
206,179	331,48
206,393	923,94
206,606	-246,16
206,82	-373,94
207,034	902,71
207,248	652,35
207,461	-491,71
207,675	-534,17
207,889	532,97
208,102	587,05
208,316	-304,64
208,529	-537,78
208,743	548,19
208,957	586,25
209,17	-283,01
209,384	-435,23
209,597	337,49
209,811	607,48
210,025	-100,75
210,238	-464,87
210,452	860,25
210,665	525,36
210,879	-395,97
211,092	-624,71
211,306	736,87
211,519	395,57
211,733	-653,95
211,946	-448,45
212,16	364,33
212,373	554,2
212,587	-200,09
212,8	-450,45
213,014	397,98
213,227	625,51
213,44	-462,87
213,654	-544,99
213,867	462,47
214,081	534,57
214,294	-599,47
214,507	-584,25
214,721	321,47
214,934	395,17
215,148	-393,57
215,361	-534,98
215,574	303,44
215,788	699,61
216,001	-587,45
216,214	-649,14
216,428	362,73
216,641	476,49
216,854	-562,62
217,067	-605,88
217,281	616,29
217,494	633,12
217,707	-526,96
217,92	-360,72
218,134	600,27
218,347	329,88
218,56	-302,64
218,773	-659,56
218,986	555,81
219,2	414,8
219,413	-649,54
219,626	-423,61
219,839	490,91
220,052	731,66
220,265	-658,35
220,479	-308,25
220,692	653,55
220,905	238,55
221,118	-82,72
221,331	-396,78
221,544	961,99
221,757	530,97
221,97	-351,51
222,183	-394,77
222,396	536,98
222,609	1028,49
222,822	196,89
223,035	-19,43
223,249	532,17
223,462	614,29
223,675	-585,05
223,887	-685,19
224,1	488,91
224,313	500,93
224,526	-626,71
224,739	-804,17
224,952	593,06
225,165	472,08
225,378	-279,41
225,591	-188,07
225,804	926,74
226,017	567,42
226,23	28,24
226,443	-420,81
226,656	647,14
226,868	625,11
227,081	-444,04
227,294	-389,97
227,507	401,18
227,72	790,95
227,933	-533,77
228,145	-439,64
228,358	676,38
228,571	355,52
228,784	-622,3
228,997	-430,42
229,209	433,23
229,422	632,72
229,635	-643,13
229,848	-358,72
230,06	611,89
230,273	388,76
230,486	-462,47
230,698	-428,82
230,911	303,44
231,124	562,21
231,336	-466,48
231,549	-189,27
231,762	374,34
231,974	566,22
232,187	-486,51
232,4	-560,61
232,612	494,12
232,825	152,82
233,038	-752,89
233,25	-91,93
233,463	549,8
233,675	670,37
233,888	-376,35
234,1	-597,87
234,313	462,07
234,526	462,47
234,738	-643,13
234,951	-403,59
235,163	611,49
235,376	700,82
235,588	-270,99
235,801	-405,19
236,013	648,34
236,226	436,43
236,438	74,71
236,65	-293,43
236,863	450,45
237,075	506,53
237,288	-658,75
237,5	-495,32
237,713	448,45
237,925	829,8
238,137	-333,08
238,35	-399,98
238,562	399,98
238,774	409,19
238,987	-475,29
239,199	-603,47
239,411	565,82
239,624	475,29
239,836	-491,71
240,048	-626,71
240,261	409,59
240,473	883,88
240,685	-529,37
240,897	-343,5
241,11	699,21
241,322	569,83
241,534	-422,81
241,746	-520,55
241,959	329,88
242,171	684,79
242,383	-314,66
242,595	-399,58
242,807	297,83
243,02	472,08
243,232	-467,68
243,444	-346,7
243,656	340,69
243,868	534,98
244,08	-489,71
244,293	-476,89
244,505	1038,51
244,717	551
244,929	-628,31
245,141	-478,49
245,353	746,08
245,565	540,98
245,777	-428,02
245,989	-279,81
246,201	625,11
246,413	459,67
246,625	-344,7
246,837	-476,89
247,049	480,5
247,261	482,1
247,473	-262,58
247,685	-221,72
247,897	299,43
248,109	591,46
248,321	-629,51
248,533	-575,83
248,745	581,44
248,957	962,8
249,169	-531,77
249,381	-502,13
249,593	663,16
249,804	707,63
250,016	-563,02
250,228	-665,16
250,44	217,72
250,652	507,74
250,864	-663,56
251,075	-88,33
251,287	786,54
251,499	863,45
251,711	-527,36
251,923	-599,47
252,134	792,95
252,346	621,1
252,558	-443,24
252,77	-216,51
252,982	690,8
253,193	560,61
253,405	-402,38
253,617	-41,86
253,828	463,67
254,04	490,91
254,252	-526,96
254,463	-378,35
254,675	866,66
254,887	477,69
255,098	-353,91
255,31	-646,34
255,522	446,05
255,733	700,42
255,945	-435,63
256,157	-644,33
256,368	432,43
256,58	689,2
256,791	-704,02
257,003	-298,23
257,214	260,18
257,426	401,98
257,637	-504,93
257,849	-718,84
258,061	803,36
258,272	488,11
258,484	-561,41
258,695	-159,63
258,907	600,67
259,118	355,92
259,329	-512,94
259,541	-504,13
259,752	585,45
259,964	757,3
260,175	-574,63
260,387	-447,25
260,598	1119,02
260,809	426,42
261,021	-110,76
261,232	-416,8
261,444	577,44
261,655	487,31
261,866	-595,86
262,078	-418,41
262,289	797,76
262,5	588,25
262,712	-320,66
262,923	-332,28
263,134	602,67
263,345	657,55
263,557	-482,1
263,768	-411,2
263,979	435,63
264,191	425,62
264,402	-429,22
264,613	-546,99
264,824	603,88
265,035	677,58
265,247	-433,23
265,458	-339,49
265,669	437,63
265,88	582,24
266,091	-146,01
266,302	-596,66
266,514	513,74
266,725	501,73
266,936	-514,15
267,147	-241,75
267,358	369,94
267,569	166,84
267,78	-310,25
267,991	-446,85
268,202	603,07
268,414	789,74
268,625	-645,94
268,836	-514,95
269,047	496,52
269,258	294,63
269,469	-635,12
269,68	-191,28
269,891	364,73
270,102	665,97
270,313	-399,58
270,524	-470,08
270,735	542,59
270,945	548,19
271,156	-334,69
271,367	-353,11
271,578	438,03
271,789	415,6
272	-469,28
272,211	-517,35
272,422	321,07
272,633	553,4
272,844	-384,76
273,054	-374,74
273,265	482,1
273,476	555
273,687	-628,71
273,898	-651,95
274,109	356,32
274,319	555,41
274,53	-206,5
274,741	-587,05
274,952	572,23
275,162	514,15
275,373	-412,8
275,584	-588,65
275,795	449,65
276,005	606,28
276,216	-247,36
276,427	-548,19
276,637	421,61
276,848	477,29
277,059	-611,49
277,269	-99,94
277,48	441,24
277,691	808,97
277,901	-99,94
278,112	-340,29
278,323	400,78
278,533	276,6
278,744	-365,93
278,954	-591,06
279,165	566,62
279,376	465,27
279,586	-186,87
279,797	-570,23
280,007	470,88
280,218	593,06
280,428	-573,83
280,639	-263,38
280,849	615,09
281,06	531,77
281,27	-158,43
281,481	-503,73
281,691	563,82
281,902	467,68
282,112	-79,92
282,322	-291,82
282,533	586,25
282,743	623,5
282,954	-212,91
283,164	-417,2
283,374	455,66
283,585	523,76
283,795	-293,43
284,006	-322,67
284,216	295,43
284,426	550,2
284,637	-418,41
284,847	-461,67
285,057	526,16
285,268	906,71
285,478	-559,41
285,688	-311,85
285,898	742,08
286,109	415,6
286,319	-214,11
286,529	-271,39
286,739	438,84
286,95	316,66
287,16	-501,73
287,37	5,01
287,58	402,38
287,79	331,08
288,001	-292,22
288,211	-623,5
288,421	465,27
288,631	516,15
288,841	-387,96
289,051	-464,47
289,261	311,45
289,471	440,84
289,682	-247,36
289,892	-129,59
290,102	405,19
290,312	472,89
290,522	-343,1
290,732	-222,52
290,942	478,89
291,152	792,95
291,362	-131,99
291,572	-164,84
291,782	730,46
291,992	400,78
292,202	-374,34
292,412	343,9
292,622	222,92
292,832	287,82
293,042	-275,8
293,252	-599,87
293,462	43,86
293,672	92,73
293,881	-346,3
294,091	-345,5
294,301	387,96
294,511	212,11
294,721	-466,48
294,931	-278,2
295,141	192,48
295,35	180,06
295,56	206,1
295,77	-209,7
295,98	522,96
296,19	25,04
296,4	-268,99
296,609	-218,92
296,819	490,91
297,029	93,54
297,239	-192,48
297,448	-497,32
297,658	113,56
297,868	244,15
298,077	-156,83
298,287	29,04
298,497	688
298,706	218,92
298,916	-312,25
299,126	-503,73
299,335	-11,82
299,545	676,38
299,755	-167,24
299,964	-342,3
300,174	59,89
300,384	34,25
300,593	-301,04
300,803	-278,6
301,012	498,92
301,222	27,44
301,431	-405,99
301,641	-311,85
301,851	22,23
302,06	-1
302,27	-383,96
302,479	-254,17
302,689	-14,62
302,898	297,03
303,107	-337,49
303,317	-272,19
303,526	486,91
303,736	113,97
303,945	50,27
304,155	-504,53
304,364	219,72
304,574	363,53
304,783	-357,52
304,992	-269,39
305,202	526,16
305,411	64,69
305,62	-462,47
305,83	-295,83
306,039	1393,42
306,248	101,55
306,458	-381,55
306,667	-344,7
306,876	84,72
307,086	594,66
307,295	-14,62
307,504	-351,91
307,713	-38,26
307,923	-26,24
308,132	-326,67
308,341	-278,2
308,55	250,16
308,76	514,95
308,969	-59,89
309,178	-510,94
309,387	446,45
309,596	17,83
309,805	-89,93
310,015	-202,49
310,224	713,23
310,433	178,06
310,642	-324,67
310,851	-382,75
311,06	296,63
311,269	144,81
311,478	-411,6
311,687	-548,19
311,896	17,83
312,106	180,86
312,315	-210,1
312,524	-282,61
312,733	-65,09
312,942	105,15
313,151	-477,69
313,36	-365,93
313,569	114,77
313,778	256,97
313,987	-466,88
314,195	-256,97
314,404	639,13
314,613	157,63
314,822	-297,03
315,031	-392,37
315,24	131,19
315,449	426,42
315,658	-407,19
315,867	-321,07
316,076	506,13
316,284	346,7
316,493	-325,07
316,702	-230,93
316,911	77,11
317,12	401,98
317,329	-453,26
317,537	-440,44
317,746	154,42
317,955	48,27
318,164	-330,28
318,372	-272,19
318,581	33,85
318,79	318,26
318,999	-172,05
319,207	-196,08
319,416	366,33
319,625	125,98
319,833	-400,78
320,042	-516,55
320,251	270,19
320,459	161,23
320,668	-165,24
320,877	-394,37
321,085	184,87
321,294	416,8
321,502	-556,21
321,711	-407,99
321,92	125,18
322,128	419,21
322,337	-387,56
322,545	-281,41
322,754	401,18
322,962	-2,2
323,171	-342,7
323,379	-412
323,588	323,07
323,796	631,11
324,005	-435,23
324,213	-489,31
324,422	79,92
324,63	30,24
324,839	318,66
325,047	-305,04
325,256	267,79
325,464	599,07
325,672	-100,35
325,881	-201,69
326,089	387,16
326,297	217,32
326,506	-87,93
326,714	-218,12
326,923	123,58
327,131	371,94
327,339	-326,67
327,548	-178,46
327,756	444,44
327,964	485,7
328,172	-6,61
328,381	-127,58
328,589	820,59
328,797	1064,94
329,005	489,71
329,214	1073,36
329,422	2487,41
329,63	2654,45
329,838	1993,89
330,046	1818,84
330,255	2291,92
330,463	1832,06
330,671	1062,54
330,879	1141,05
331,087	1475,54
331,295	1168,69
331,503	254,17
331,712	-297,83
331,92	594,26
332,128	311,05
332,336	-59,49
332,544	-109,16
332,752	429,62
332,96	236,94
333,168	-409,19
333,376	-149,22
333,584	274,2
333,792	-28,64
334	-243,75
334,208	-233,34
334,416	335,89
334,624	-16,22
334,832	-202,09
335,04	-435,23
335,248	353,91
335,456	396,37
335,664	-303,04
335,872	-275,4
336,08	233,74
336,287	531,37
336,495	-373,14
336,703	-290,62
336,911	-3
337,119	189,27
337,327	-399,18
337,535	-140,4
337,742	601,47
337,95	199,69
338,158	-23,83
338,366	-477,69
338,573	466,48
338,781	133,99
338,989	-204,5
339,197	-423,61
339,404	635,12
339,612	226,93
339,82	-250,56
340,028	-234,54
340,235	508,54
340,443	97,54
340,651	-428,42
340,858	-456,06
341,066	386,76
341,274	560,21
341,481	-392,37
341,689	-471,68
341,896	149,22
342,104	299,43
342,312	-363,93
342,519	-408,79
342,727	175,25
342,934	198,09
343,142	-428,02
343,349	-142,41
343,557	31,45
343,765	128,39
343,972	-87,93
344,18	-152,82
344,387	228,13
344,594	450,85
344,802	-342,7
345,009	-488,91
345,217	275
345,424	45,87
345,632	77,51
345,839	-343,1
346,047	389,56
346,254	510,14
346,461	-319,46
346,669	-262,58
346,876	141,61
347,083	322,67
347,291	-359,12
347,498	-60,29
347,705	57,08
347,913	230,13
348,12	-380,35
348,327	-228,53
348,535	375,54
348,742	510,14
348,949	-287,42
349,156	-87,53
349,364	98,34
349,571	99,54
349,778	-65,9
349,985	-448,85
350,192	334,28
350,4	-46,27
350,607	-487,71
350,814	-303,04
351,021	223,32
351,228	195,68
351,435	-331,48
351,643	-173,65
351,85	353,51
352,057	310,25
352,264	-385,96
352,471	-289,02
352,678	283,81
352,885	78,71
353,092	-21,83
353,299	-218,52
353,506	103,95
353,713	217,32
353,92	-311,45
354,127	-79,52
354,334	649,94
354,541	166,04
354,748	-315,86
354,955	-413,6
355,162	193,68
355,369	90,33
355,576	-216,91
355,783	-291,82
355,99	357,12
356,197	158,83
356,404	-401,58
356,611	-217,32
356,817	589,86
357,024	127,18
357,231	-362,73
357,438	-412,4
357,645	341,5
357,852	242,55
358,058	-387,96
358,265	-305,84
358,472	190,08
358,679	406,39
358,885	-121,58
359,092	-523,36
359,299	489,31
359,506	619,1
359,712	-157,63
359,919	-341,09
360,126	362,33
360,333	109,16
360,539	-338,29
360,746	-235,34
360,953	462,47
361,159	377,15
361,366	-376,35
361,572	78,71
361,779	212,11
361,986	609,08
362,192	-389,56
362,399	-295,83
362,605	742,48
362,812	75,91
363,019	142,41
363,225	-134,8
363,432	441,24
363,638	424,42
363,845	-304,64
364,051	-406,79
364,258	185,67
364,464	219,32
364,671	63,09
364,877	-463,27
365,084	452,86
365,29	355,52
365,496	-290,62
365,703	-481,3
365,909	336,29
366,116	379,95
366,322	-187,67
366,528	-287,42
366,735	259,38
366,941	268,59
367,147	-174,85
367,354	-48,67
367,56	484,9
367,766	346,7
367,973	-379,15
368,179	-258,57
368,385	660,36
368,592	268,99
368,798	-152,82
369,004	-416,8
369,21	377,55
369,417	210,1
369,623	-523,36
369,829	17,43
370,035	374,74
370,241	170,85
370,448	-471,28
370,654	-443,64
370,86	343,1
371,066	420,81
371,272	-250,16
371,478	-433,23
371,684	2394,07
371,891	455,26
372,097	-446,85
372,303	-244,55
372,509	307,05
372,715	496,12
372,921	-376,35
373,127	-327,07
373,333	341,09
373,539	142,41
373,745	-278,2
373,951	-629,51
374,157	118,37
374,363	203,29
374,569	-160,83
374,775	61,89
374,981	655,95
375,187	181,26
375,393	-260,58
375,599	-334,28
375,804	267,39
376,01	94,34
376,216	-466,88
376,422	-264,18
376,628	346,3
376,834	242,95
377,04	33,45
377,246	-144,01
377,451	554,2
377,657	285,41
377,863	-232,54
378,069	-208,9
378,274	291,82
378,48	144,01
378,686	-376,75
378,892	-261,38
379,097	599,87
379,303	607,88
379,509	-512,14
379,715	371,54
379,92	834,61
380,126	302,64
380,332	-21,03
380,537	43,46
380,743	165,64
380,949	576,24
381,154	-418,01
381,36	-237,74
381,565	137,6
381,771	108,36
381,977	-481,7
382,182	-264,18
382,388	249,76
382,593	447,25
382,799	-170,85
383,004	-511,34
383,21	343,1
383,415	309,85
383,621	-21,43
383,826	-296,23
384,032	113,97
384,237	677,58
384,443	-549
384,648	-540,18
384,854	586,65
385,059	804,17
385,265	-234,14
385,47	-43,46
385,675	518,15
385,881	412
386,086	-347,1
386,291	-583,45
386,497	539,78
386,702	223,72
386,907	-240,15
387,113	-253,37
387,318	267,39
387,523	518,15
387,729	-513,74
387,934	-544,19
388,139	215,71
388,344	78,31
388,55	-308,65
388,755	-237,74
388,96	179,26
389,165	363,93
389,371	-324,27
389,576	-208,1
389,781	-30,24
389,986	497,32
390,191	-316,26
390,396	-430,02
390,601	563,02
390,807	334,28
391,012	-302,24
391,217	-342,3
391,422	323,87
391,627	480,9
391,832	-240,95
392,037	-289,02
392,242	320,26
392,447	644,33
392,652	-522,16
392,857	-481,3
393,062	310,65
393,267	300,24
393,472	-286,62
393,677	-153,62
393,882	401,18
394,087	218,12
394,292	-315,86
394,497	-248,96
394,702	322,27
394,907	364,33
395,112	-53,48
395,317	-351,11
395,521	535,38
395,726	268,99
395,931	-140,4
396,136	-518,95
396,341	758,1
396,546	209,3
396,75	-393,57
396,955	-39,86
397,16	612,29
397,365	283,01
397,57	69,9
397,774	-399,18
397,979	377,55
398,184	495,72
398,389	-544,19
398,593	-453,26
398,798	492,51
399,003	180,86
399,207	-275
399,412	-232,14
399,617	142,01
399,821	449,25
400,026	-283,41
400,231	-133,99
400,435	103,55
400,64	327,88
400,844	-295,43
401,049	-138
401,254	617,5
401,458	256,57
401,663	77,51
401,867	-67,9
402,072	188,47
402,276	411,2
402,481	-219,72
402,685	-504,93
402,89	363,93
403,094	305,04
403,299	-365,53
403,503	-438,44
403,708	762,51
403,912	306,64
404,116	-192,48
404,321	-261,38
404,525	400,38
404,73	518,15
404,934	-335,09
405,138	-181,26
405,343	620,3
405,547	761,7
405,751	-143,21
405,956	-168,04
406,16	605,48
406,364	866,26
406,569	-112,76
406,773	-466,08
406,977	531,37
407,181	699,21
407,386	-392,77
407,59	-46,27
407,794	555
407,998	194,88
408,202	-303,44
408,407	-389,97
408,611	280,21
408,815	222,52
409,019	-259,38
409,223	-420,01
409,427	470,08
409,632	517,35
409,836	-315,06
410,04	-125,58
410,244	415,2
410,448	204,1
410,652	-196,89
410,856	-434,83
411,06	345,5
411,264	399,18
411,468	-303,84
411,672	-310,25
411,876	158,43
412,08	397,18
412,284	-301,84
412,488	-500,93
412,692	549
412,896	380,35
413,1	-387,56
413,304	-320,26
413,508	546,99
413,712	367,53
413,916	-397,58
414,12	-281,81
414,323	401,98
414,527	178,86
414,731	231,34
414,935	-340,69
415,139	457,26
415,343	479,7
415,546	-246,96
415,75	-171,25
415,954	238,95
416,158	772,12
416,361	-339,89
416,565	-249,36
416,769	405,59
416,973	534,98
417,176	-203,29
417,38	-9,81
417,584	554,2
417,788	704,42
417,991	-80,72
418,195	-343,1
418,398	732,06
418,602	506,93
418,806	-517,35
419,009	-192,88
419,213	366,73
419,417	829,8
419,62	-99,54
419,824	-347,5
420,027	543,79
420,231	443,64
420,434	-186,87
420,638	-272,19
420,841	436,03
421,045	486,91
421,248	-379,55
421,452	-349,91
421,655	558,61
421,859	460,87
422,062	-519,35
422,266	-331,88
422,469	639,13
422,673	171,65
422,876	-244,15
423,079	-442,44
423,283	429,22
423,486	415,2
423,689	138,4
423,893	-323,07
424,096	451,65
424,299	383,56
424,503	-67,9
424,706	-494,92
424,909	210,91
425,113	293,43
425,316	-510,54
425,519	-165,24
425,722	336,29
425,926	626,71
426,129	-514,15
426,332	85,12
426,535	446,05
426,739	612,29
426,942	49,47
427,145	-49,87
427,348	389,56
427,551	354,71
427,754	-247,76
427,957	-216,91
428,161	242,95
428,364	621,1
428,567	-85,12
428,77	-245,36
428,973	444,04
429,176	586,65
429,379	110,36
429,582	-153,62
429,785	309,45
429,988	565,42
430,191	-343,1
430,394	-335,89
430,597	370,74
430,8	208,1
431,003	4,61
431,206	-327,88
431,409	509,74
431,612	439,24
431,815	-288,22
432,018	-242,95
432,221	355,52
432,423	264,58
432,626	-72,71
432,829	-432,43
433,032	588,25
433,235	570,23
433,438	-144,41
433,64	36,25
433,843	432,03
434,046	159,23
434,249	-491,71
434,452	-494,92
434,654	681,19
434,857	355,11
435,06	-369,14
435,263	-319,06
435,465	345,1
435,668	612,29
435,871	-371,94
436,073	-324,27
436,276	346,7
436,479	555,41
436,681	-501,33
436,884	-275,8
437,087	335,09
437,289	402,78
437,492	129,59
437,694	-343,5
437,897	289,02
438,1	341,09
438,302	-283,81
438,505	-304,24
438,707	657,15
438,91	310,25
439,112	-546,99
439,315	-339,89
439,517	369,54
439,72	325,87
439,922	-345,5
440,125	-274,2
440,327	206,1
440,529	482,1
440,732	-456,86
440,934	57,48
441,137	267,79
441,339	502,93
441,541	-190,08
441,744	-114,37
441,946	378,35
442,148	311,05
442,351	-384,36
442,553	-342,7
442,755	464,47
442,958	353,91
443,16	-231,34
443,362	-392,37
443,565	339,49
443,767	466,88
443,969	-136,4
444,171	-113,97
444,373	291,42
444,576	587,05
444,778	-440,44
444,98	-348,3
445,182	497,32
445,384	328,28
445,586	-441,24
445,789	-380,75
445,991	517,75
446,193	553,4
446,395	-411,6
446,597	-345,1
446,799	687,2
447,001	448,85
447,203	-362,33
447,405	-180,06
447,607	238,15
447,809	207,7
448,011	-133,19
448,213	-167,24
448,415	604,68
448,617	482,5
448,819	-201,29
449,021	-312,65
449,223	241,75
449,425	647,14
449,627	-252,57
449,829	-274,6
450,031	444,04
450,233	534,57
450,435	-174,05
450,636	-452,46
450,838	348,3
451,04	360,32
451,242	-304,64
451,444	-298,23
451,646	343,5
451,847	430,02
452,049	-552,2
452,251	-163,24
452,453	558,21
452,654	673,98
452,856	-217,32
453,058	-131,59
453,26	447,65
453,461	645,14
453,663	9,01
453,865	-262,98
454,066	332,28
454,268	722,05
454,47	-25,44
454,671	-160,83
454,873	766,11
455,074	686,8
455,276	39,06
455,478	-65,49
455,679	361,92
455,881	472,08
456,082	-478,49
456,284	-86,73
456,485	412,4
456,687	352,31
456,888	409,99
457,09	-273
457,291	431,23
457,493	526,16
457,694	-480,9
457,896	-99,54
458,097	522,16
458,299	268,99
458,5	93,14
458,701	-389,56
458,903	800,16
459,104	724,05
459,306	-372,74
459,507	-133,59
459,708	449,25
459,91	323,47
460,111	359,12
460,312	-126,38
460,514	581,44
460,715	375,94
460,916	-97,94
461,117	-274,2
461,319	382,75
461,52	909,12
461,721	-287,42
461,922	-226,13
462,124	635,92
462,325	687,2
462,526	-156,83
462,727	-206,9
462,928	400,78
463,129	332,28
463,331	-6,21
463,532	-331,08
463,733	855,84
463,934	311,85
464,135	-259,78
464,336	-342,3
464,537	401,58
464,738	551,4
464,939	64,29
465,14	-186,47
465,341	580,64
465,542	148,82
465,743	-169,65
465,944	-121,98
466,145	395,17
466,346	803,77
466,547	-347,9
466,748	-63,89
466,949	277,4
467,15	414,4
467,351	-407,99
467,552	81,52
467,753	403,59
467,953	930,75
468,154	13,02
468,355	-357,52
468,556	563,82
468,757	569,83
468,958	48,67
469,158	-371,94
469,359	436,03
469,56	182,46
469,761	-455,26
469,962	-99,14
470,162	280,61
470,363	377,55
470,564	-292,62
470,764	3,4
470,965	340,29
471,166	511,34
471,366	25,44
471,567	2042,36
471,768	559,81
471,968	506,13
472,169	-331,88
472,37	-397,18
472,57	309,45
472,771	251,76
472,971	112,36
473,172	-260,18
473,373	287,82
473,573	543,79
473,774	-324,67
473,974	-74,71
474,175	1090,98
474,375	424,82
474,576	-211,31
474,776	-197,29
474,977	530,57
475,177	528,57
475,377	64,29
475,578	77,51
475,778	626,31
475,979	471,68
476,179	283,01
476,379	-250,96
476,58	426,42
476,78	279,81
476,981	-222,92
477,181	-202,49
477,381	394,37
477,582	678,78
477,782	-299,03
477,982	-353,91
478,182	511,74
478,383	152,02
478,583	371,94
478,783	-319,06
478,983	663,56
479,184	855,04
479,384	-120,78
479,584	63,89
479,784	428,42
479,984	383,96
480,184	-351,51
480,385	-309,45
480,585	653,95
480,785	292,62
480,985	-239,75
481,185	-119,17
481,385	535,78
481,585	357,12
481,785	-289,82
481,985	-69,5
482,185	584,65
482,385	474,09
482,585	-365,13
482,785	-139,6
482,985	435,23
483,185	544,99
483,385	-447,25
483,585	-143,61
483,785	392,37
483,985	394,77
484,185	-337,09
484,385	-438,03
484,585	470,08
484,785	310,25
484,985	-333,88
485,185	-223,32
485,384	784,14
485,584	208,1
485,784	-254,97
485,984	-191,68
486,184	512,54
486,383	124,78
486,583	286,62
486,783	-302,24
486,983	390,77
487,183	637,92
487,382	-118,77
487,582	-325,47
487,782	554,2
487,981	294,63
488,181	-275,4
488,381	-443,24
488,58	773,72
488,78	309,05
488,98	-317,06
489,179	-425,62
489,379	675,98
489,579	757,3
489,778	-75,11
489,978	-136,4
490,177	427,22
490,377	537,38
490,576	-127,18
490,776	-133,59
490,975	536,98
491,175	525,36
491,374	247,76
491,574	-263,38
491,773	286,21
491,973	784,14
492,172	-60,29
492,372	-62,29
492,571	1470,73
492,771	622,7
492,97	-65,9
493,169	620,3
493,369	768,11
493,568	590,66
493,767	-227,73
493,967	-61,89
494,166	643,53
494,365	398,78
494,565	-178,86
494,764	228,93
494,963	377,15
495,163	1648,19
495,362	-135,6
495,561	-266,99
495,76	420,01
495,959	518,95
496,159	302,24
496,358	-31,45
496,557	504,93
496,756	664,36
496,955	219,32
497,155	769,72
497,354	1997,5
497,553	1904,56
497,752	1754,34
497,951	1604,93
498,15	1663,41
498,349	1457,51
498,548	226,93
498,747	304,64
498,946	716,44
499,145	768,51
499,344	83,52
499,543	200,49
499,742	365,93
499,941	431,63
500,14	-321,07
500,339	-6,21
500,538	536,18
500,737	746,48
500,936	-121,58
501,135	-187,67
501,334	355,11
501,533	410,39
501,732	-353,11
501,931	-372,34
502,129	530,17
502,328	838,22
502,527	-107,16
502,726	-214,51
502,925	593,86
503,123	665,97
503,322	75,11
503,521	-205,3
503,72	409,19
503,919	313,85
504,117	-167,24
504,316	89,53
504,515	562,21
504,713	489,31
504,912	-303,84
505,111	-51,07
505,309	500,93
505,508	382,75
505,707	-146,41
505,905	-400,78
506,104	411,6
506,302	336,29
506,501	-297,83
506,7	338,29
506,898	502,13
507,097	742,08
507,295	59,49
507,494	-343,1
507,692	506,93
507,891	446,45
508,089	-330,68
508,288	319,06
508,486	438,84
508,685	544,19
508,883	8,21
509,082	-230,53
509,28	569,43
509,478	353,91
509,677	-25,84
509,875	-300,24
510,073	1013,67
510,272	419,21
510,47	-256,97
510,669	-281,41
510,867	460,87
511,065	580,24
511,263	-157,63
511,462	-212,11
511,66	261,38
511,858	579,84
512,056	-369,14
512,255	1095,79
512,453	587,45
512,651	323,87
512,849	-27,84
513,048	-53,88
513,246	692,8
513,444	460,87
513,642	-74,71
513,84	-127,58
514,038	587,05
514,236	627,11
514,435	216,51
514,633	761,3
514,831	968
515,029	1116,22
515,227	183,27
515,425	162,84
515,623	418,81
515,821	392,37
516,019	-64,69
516,217	-180,86
516,415	677,98
516,613	672,78
516,811	23,03
517,009	-195,28
517,207	517,75
517,405	506,53
517,602	-103,15
517,8	-176,46
517,998	459,67
518,196	827
518,394	-79,11
518,592	-214,11
518,79	834,61
518,987	696,81
519,185	-253,37
519,383	-295,43
519,581	1164,29
519,779	527,36
519,976	-63,09
520,174	-163,24
520,372	476,49
520,57	204,1
520,767	-282,61
520,965	-243,35
521,163	479,7
521,36	544,19
521,558	-260,98
521,756	84,72
521,953	632,32
522,151	318,66
522,349	-209,3
522,546	-123,18
522,744	984,03
522,941	432,03
523,139	70,3
523,336	72,3
523,534	671,57
523,731	699,61
523,929	-380,75
524,126	-315,06
524,324	315,06
524,521	648,34
524,719	110,76
524,916	52,28
525,114	194,48
525,311	394,37
525,509	127,58
525,706	-200,09
525,903	1489,56
526,101	469,68
526,298	-70,7
526,496	-230,53
526,693	452,06
526,89	659,96
527,088	35,45
527,285	-279,81
527,482	657,95
527,679	626,31
527,877	-149,22
528,074	-5,81
528,271	347,9
528,468	665,56
528,666	-153,62
528,863	139,6
529,06	463,27
529,257	943,17
529,454	71,9
529,652	-220,12
529,849	1073,36
530,046	615,89
530,243	-144,41
530,44	-273,8
530,637	373,14
530,834	573,83
531,031	-55,48
531,228	-148,01
531,425	1041,71
531,622	938,36
531,819	-85,52
532,016	12,62
532,213	620,7
532,41	657,15
532,607	311,85
532,804	99,94
533,001	659,56
533,198	482,5
533,395	-14,62
533,592	-134,8
533,789	345,1
533,986	637,12
534,183	-10,21
534,38	-48,27
534,576	709,23
534,773	673,58
534,97	-48,27
535,167	-148,01
535,364	748,08
535,561	683,19
535,757	32,25
535,954	-204,9
536,151	735,27
536,348	509,74
536,544	177,26
536,741	-264,18
536,938	634,32
537,134	844,22
537,331	-78,31
537,528	-129,19
537,724	542,59
537,921	503,33
538,118	-62,29
538,314	-333,08
538,511	740,87
538,707	820,59
538,904	226,53
539,101	75,51
539,297	703,62
539,494	595,86
539,69	-72,3
539,887	-103,55
540,083	663,16
540,28	815,38
540,476	342,3
540,673	-78,31
540,869	774,12
541,066	438,84
541,262	-115,97
541,458	111,56
541,655	825,8
541,851	721,25
542,048	37,85
542,244	-53,48
542,44	869,46
542,637	569,02
542,833	144,01
543,029	-132,79
543,226	647,14
543,422	976,01
543,618	-56,28
543,814	-28,64
544,011	543,39
544,207	608,28
544,403	210,51
544,599	-1
544,796	593,86
544,992	684,39
545,188	211,71
545,384	-32,65
545,58	605,08
545,776	1087,38
545,972	100,75
546,169	241,75
546,365	791,35
546,561	808,17
546,757	184,47
546,953	134,8
547,149	568,62
547,345	750,49
547,541	182,46
547,737	-18,23
547,933	758,5
548,129	712,03
548,325	31,05
548,521	128,79
548,717	637,92
548,913	929,55
549,109	204,1
549,305	152,42
549,501	860,65
549,697	900,31
549,892	30,24
550,088	45,07
550,284	845,02
550,48	1140,25
550,676	325,47
550,872	201,69
551,067	883,48
551,263	911,52
551,459	-1,8
551,655	355,52
551,85	977,62
552,046	521,76
552,242	28,64
552,438	299,43
552,633	813,38
552,829	871,06
553,025	306,24
553,22	246,96
553,416	1127,83
553,612	782,13
553,807	316,26
554,003	180,06
554,198	841,02
554,394	1408,64
554,59	108,36
554,785	66,7
554,981	718,84
555,176	859,05
555,372	286,21
555,567	120,37
555,763	852,24
555,958	741,27
556,154	237,34
556,349	554,6
556,545	1146,26
556,74	1029,29
556,936	462,47
557,131	585,05
557,326	1044,11
557,522	1365,78
557,717	285,81
557,912	567,82
558,108	1028,89
558,303	1250,81
558,498	934,76
558,694	825,8
558,889	1101
559,084	1177,51
559,28	500,93
559,475	494,52
559,67	1300,08
559,865	1297,28
560,061	564,22
560,256	509,74
560,451	1101,4
560,646	1267,24
560,841	488,51
561,037	253,77
561,232	1193,93
561,427	1338,94
561,622	331,08
561,817	505,73
562,012	1334,53
562,207	1513,99
562,402	586,25
562,597	627,11
562,792	1195,13
562,987	1554,45
563,182	670,37
563,377	737,67
563,572	1543,24
563,767	1235,59
563,962	968,8
564,157	851,83
564,352	1510,39
564,547	1594,51
564,742	1162,69
564,937	1160,28
565,132	1812,43
565,327	1972,26
565,522	1443,49
565,716	1147,06
565,911	1580,09
566,106	1690,65
566,301	1310,9
566,496	1236,39
566,691	2164,54
566,885	2916,03
567,08	3121,52
567,275	4719,04
567,47	8305,04
567,664	11869,01
567,859	14239,64
568,054	14913,82
568,248	16165,63
568,443	16510,13
568,638	12952,18
568,832	9470,73
569,027	8006,21
569,222	5893,14
569,416	3795,3
569,611	3109,11
569,805	2652,85
570	2634,02
570,195	1556,86
570,389	1409,04
570,584	2285,91
570,778	2223,02
570,973	1291,67
571,167	1646,99
571,362	1800,41
571,556	1849,28
571,751	1430,27
571,945	1410,64
572,139	1933
572,334	1905,76
572,528	1146,66
572,723	1324,92
572,917	2235,04
573,111	1940,61
573,306	1604,53
573,5	1483,15
573,694	2127,28
573,889	2464,57
574,083	1391,02
574,277	1607,33
574,472	1736,32
574,666	2257,87
574,86	1161,48
575,054	1488,36
575,249	2249,06
575,443	2299,13
575,637	1634,57
575,831	1597,32
576,025	2450,95
576,219	2238,24
576,414	1778,78
576,608	1687,85
576,802	2550,3
576,996	2371,64
577,19	1747,13
577,384	1876,12
577,578	2446,15
577,772	2665,66
577,966	2057,58
578,16	2122,08
578,354	2742,18
578,548	2939,26
578,742	2252,67
578,936	2465,37
579,13	3163,59
579,324	3173,2
579,518	2882,78
579,712	2696,11
579,906	3226,88
580,1	3445,59
580,294	3138,75
580,488	4052,47
580,682	5772,17
580,875	6129,89
581,069	5712,08
581,263	6421,51
581,457	7197,03
581,651	6570,12
581,845	6389,46
582,038	6168,34
582,232	6823,69
582,426	6788,04
582,62	7005,56
582,813	7271,14
583,007	7958,54
583,201	7918,48
583,394	7244,3
583,588	7239,09
583,782	7747,43
583,975	7763,05
584,169	7783,88
584,363	7931,7
584,556	8694,4
584,75	9179,11
584,943	8838,21
585,137	9042,91
585,33	10081,21
585,524	10015,12
585,718	10484,6
585,911	11282,56
586,105	13303,08
586,298	14677,08
586,491	16438,43
586,685	18527,06
586,878	23075,65
587,072	47397,71
587,265	61285,84
587,459	61059,51
587,652	62940,64
587,845	62599,34
588,039	63185,39
588,232	63227,45
588,426	63267,51
588,619	63241,48
588,812	63221,45
589,005	63277,53
589,199	63303,57
589,392	63253,49
589,585	63317,59
589,779	63289,54
589,972	63353,64
590,165	63289,54
590,358	63265,51
590,551	63259,5
590,745	63255,5
590,938	63289,54
591,131	63235,47
591,324	63241,48
591,517	63289,54
591,71	63281,53
591,904	63229,46
592,097	63307,57
592,29	63331,61
592,483	63219,44
592,676	63301,56
592,869	63295,55
593,062	63303,57
593,255	63293,55
593,448	63269,52
593,641	63347,63
593,834	63345,63
594,027	63203,42
594,22	63273,52
594,413	63273,52
594,606	63249,49
594,799	63293,55
594,992	63277,53
595,184	63289,54
595,377	63201,42
595,57	63263,51
595,763	63279,53
595,956	63255,5
596,149	63335,61
596,341	63349,63
596,534	63159,36
596,727	63275,52
596,92	63331,61
597,113	63297,56
597,305	63369,66
597,498	63261,5
597,691	63335,61
597,883	63297,56
598,076	63223,45
598,269	63261,5
598,462	63305,57
598,654	63349,63
598,847	63333,61
599,039	63271,52
599,232	63351,63
599,425	63245,48
599,617	63283,54
599,81	63273,52
600,002	63361,65
600,195	63303,57
600,387	63327,6
600,58	63277,53
600,772	63257,5
600,965	63205,42
601,157	63299,56
601,35	63287,54
601,542	63285,54
601,735	63265,51
601,927	63221,45
602,12	63205,42
602,312	63341,62
602,504	63229,46
602,697	63305,57
602,889	63273,52
603,082	63257,5
603,274	63277,53
603,466	63291,55
603,659	63311,58
603,851	63323,59
604,043	63241,48
604,235	63195,41
604,428	63329,6
604,62	63307,57
604,812	63281,53
605,004	63365,66
605,197	63269,52
605,389	63297,56
605,581	63283,54
605,773	63251,49
605,965	63301,56
606,157	63297,56
606,349	63247,48
606,542	63229,46
606,734	63267,51
606,926	63323,59
607,118	63343,62
607,31	63349,63
607,502	63315,58
607,694	63349,63
607,886	63269,52
608,078	63231,46
608,27	63273,52
608,462	63347,63
608,654	63313,58
608,846	63287,54
609,038	63205,42
609,23	63301,56
609,422	63263,51
609,614	63225,45
609,805	63309,57
609,997	63249,49
610,189	63217,44
610,381	63249,49
610,573	63273,52
610,765	63241,48
610,957	63253,49
611,148	63293,55
611,34	63277,53
611,532	63329,6
611,724	63313,58
611,915	63273,52
612,107	63257,5
612,299	63301,56
612,491	63265,51
612,682	63385,68
612,874	48289,8
613,066	32982,41
613,257	1260,03
613,449	521,76
613,64	666,77
613,832	1468,73
614,024	1562,46
614,215	1175,5
614,407	1290,87
614,598	2227,03
614,79	2660,06
614,981	3019,78
615,173	3181,21
615,364	4063,69
615,556	4153,82
615,747	3673,93
615,939	2599,97
616,13	2763,81
616,322	2331,58
616,513	1207,95
616,705	1137,85
616,896	1765,56
617,087	1248,41
617,279	771,72
617,47	353,51
617,661	888,29
617,853	817,38
618,044	437,23
618,235	501,73
618,427	1089,38
618,618	859,05
618,809	438,03
619	208,1
619,192	968
619,383	804,17
619,574	366,33
619,765	427,22
619,957	782,13
620,148	861,05
620,339	234,94
620,53	467,68
620,721	1088,58
620,912	870,26
621,103	465,27
621,294	243,75
621,485	746,48
621,677	1046,52
621,868	129,99
622,059	626,71
622,25	700,42
622,441	626,31
622,632	230,13
622,823	503,73
623,014	710,83
623,205	1195,93
623,395	92,73
623,586	172,45
623,777	583,05
623,968	502,93
624,159	73,11
624,35	282,61
624,541	711,63
624,732	637,52
624,923	138,4
625,113	193,28
625,304	503,33
625,495	784,54
625,686	351,51
625,877	213,31
626,067	532,57
626,258	1040,11
626,449	23,43
626,639	180,46
626,83	819,79
627,021	622,7
627,211	522,16
627,402	143,21
627,593	1386,21
627,783	591,06
627,974	461,67
628,165	244,55
628,355	1147,86
628,546	623,1
628,736	326,67
628,927	-69,9
629,117	731,66
629,308	627,11
629,498	-41,46
629,689	269,39
629,879	597,07
630,07	631,92
630,26	-64,69
630,451	250,96
630,641	402,78
630,832	542,99
631,022	412,4
631,212	13,42
631,403	681,59
631,593	923,54
631,784	-22,23
631,974	194,88
632,164	608,28
632,355	523,76
632,545	317,86
632,735	146,41
632,925	783,74
633,116	798,16
633,306	444,84
633,496	-33,45
633,686	686,8
633,876	629,11
634,067	-194,08
634,257	626,31
634,447	497,72
634,637	422,41
634,827	-34,65
635,017	1161,48
635,208	542,59
635,398	317,46
635,588	-181,26
635,778	1
635,968	309,85
636,158	462,87
636,348	151,62
636,538	44,26
636,728	937,56
636,918	292,22
637,108	299,03
637,298	-41,46
637,488	529,37
637,678	792,55
637,868	-97,94
638,057	113,56
638,247	526,56
638,437	742,08
638,627	-12,62
638,817	85,12
639,007	364,73
639,197	625,11
639,386	-73,91
639,576	246,56
639,766	716,04
639,956	470,08
640,145	41,86
640,335	-178,06
640,525	504,13
640,715	460,87
640,904	561,41
641,094	342,7
641,284	461,67
641,473	629,51
641,663	-187,27
641,853	21,43
642,042	438,03
642,232	432,03
642,421	59,09
642,611	8,21
642,801	419,21
642,99	795,35
643,18	-347,1
643,369	71,5
643,559	328,28
643,748	400,78
643,938	-137,2
644,127	217,32
644,317	851,03
644,506	372,74
644,695	37,45
644,885	21,03
645,074	446,45
645,264	678,38
645,453	42,66
645,642	-49,07
645,832	532,97
646,021	584,25
646,21	-71,1
646,4	-226,93
646,589	625,11
646,778	429,22
646,967	138
647,157	-116,37
647,346	657,15
647,535	825
647,724	32,25
647,913	40,26
648,103	444,04
648,292	747,68
648,481	-253,37
648,67	-24,64
648,859	590,26
649,048	425,22
649,237	-29,84
649,427	27,84
649,616	500,53
649,805	443,64
649,994	-37,85
650,183	252,17
650,372	629,11
650,561	385,56
650,75	-234,14
650,939	-230,13
651,128	403,18
651,317	506,93
651,506	149,22
651,694	-166,84
651,883	380,35
652,072	818,59
652,261	-278,2
652,45	-304,24
652,639	559,01
652,828	411,6
653,016	-109,56
653,205	-53,08
653,394	325,07
653,583	782,13
653,772	-315,46
653,96	-195,68
654,149	474,09
654,338	335,89
654,527	-3,4
654,715	-132,79
654,904	370,34
655,093	282,61
655,281	2,6
655,47	-349,51
655,658	288,62
655,847	697,21
656,036	-178,46
656,224	-161,63
656,413	438,44
656,601	199,69
656,79	42,26
656,978	-218,92
657,167	565,82
657,355	349,51
657,544	-262,18
657,732	-176,86
657,921	417,61
658,109	549,8
658,298	-7,01
658,486	-127,18
658,675	281,01
658,863	530,97
659,051	-132,39
659,24	-55,88
659,428	559,81
659,616	677,98
659,805	-161,23
659,993	-296,23
660,181	504,93
660,37	281,01
660,558	-91,53
660,746	-297,43
660,934	172,45
661,123	435,23
661,311	-139,6
661,499	20,23
661,687	395,17
661,875	695,21
662,064	-82,72
662,252	-178,06
662,44	448,45
662,628	307,05
662,816	-452,06
663,004	-219,32
663,192	303,04
663,38	842,62
663,568	-134,39
663,756	-232,54
663,944	270,59
664,132	665,16
664,32	719,24
664,508	-231,34
664,696	467,68
664,884	326,27
665,072	-316,26
665,26	-393,17
665,448	283,41
665,636	118,37
665,824	-261,78
666,012	-336,29
666,199	281,01
666,387	529,77
666,575	-193,28
666,763	-68,3
666,951	502,53
667,139	431,23
667,326	-260,18
667,514	-333,48
667,702	621,1
667,889	678,38
668,077	-182,46
668,265	-107,16
668,453	375,54
668,64	374,74
668,828	-192,08
669,016	-262,98
669,203	470,08
669,391	247,76
669,578	-76,31
669,766	-385,56
669,954	584,25
670,141	228,93
670,329	-177,66
670,516	-470,08
670,704	238,95
670,891	513,74
671,079	-142,41
671,266	-304,64
671,454	473,69
671,641	357,12
671,828	-173,25
672,016	-206,9
672,203	425,62
672,391	377,95
672,578	-365,53
672,765	-224,53
672,953	353,51
673,14	281,81
673,327	-199,29
673,515	-246,16
673,702	669,97
673,889	733,26
674,077	-200,89
674,264	-114,37
674,451	474,09
674,638	405,99
674,825	82,32
675,013	-347,9
675,2	412,8
675,387	445,65
675,574	-280,21
675,761	-109,96
675,948	294,63
676,136	218,92
676,323	-133,59
676,51	-266,19
676,697	402,38
676,884	556,61
677,071	-447,25
677,258	-345,9
677,445	453,66
677,632	264,58
677,819	-288,62
678,006	-219,72
678,193	570,23
678,38	377,55
678,567	-135,2
678,754	-409,59
678,94	354,71
679,127	611,09
679,314	-215,31
679,501	-321,07
679,688	192,48
679,875	160,03
680,062	-207,7
680,248	-281,01
680,435	364,33
680,622	515,75
680,809	-128,79
680,995	-156,83
681,182	605,08
681,369	347,5
681,556	-409,19
681,742	-295,03
681,929	539,38
682,116	599,87
682,302	-55,48
682,489	-323,87
682,675	452,46
682,862	710,43
683,049	-475,29
683,235	-206,5
683,422	370,74
683,608	788,14
683,795	-500,93
683,981	-333,08
684,168	724,05
684,354	259,38
684,541	599,87
684,727	-48,67
684,914	284,61
685,1	359,52
685,287	-232,94
685,473	-273
685,659	450,85
685,846	389,56
686,032	-228,93
686,218	344,7
686,405	829,8
686,591	585,45
686,777	-115,57
686,964	-264,98
687,15	269,39
687,336	389,16
687,522	-441,24
687,709	-419,21
687,895	347,5
688,081	654,35
688,267	-334,69
688,454	-288,62
688,64	378,35
688,826	274,6
689,012	-210,1
689,198	-146,81
689,384	375,54
689,57	965,2
689,756	-468,48
689,942	146,41
690,128	529,77
690,314	988,83
690,501	-156,83
690,687	47,47
690,873	692,4
691,058	624,71
691,244	-508,14
691,43	-102,35
691,616	248,56
691,802	539,78
691,988	-490,51
692,174	-303,44
692,36	288,22
692,546	334,69
692,732	-10,21
692,917	255,37
693,103	432,03
693,289	750,89
693,475	-150,42
693,661	-186,87
693,846	360,32
694,032	475,69
694,218	-326,27
694,404	-52,28
694,589	590,26
694,775	341,9
694,961	354,71
695,146	1352,56
695,332	3117,12
695,518	4785,14
695,703	4959,39
695,889	6107,85
696,074	7743,83
696,26	7271,94
696,446	4753,89
696,631	4010,01
696,817	3983,98
697,002	3231,68
697,188	2317,96
697,373	1369,39
697,559	2218,22
697,744	1514,8
697,93	280,61
698,115	119,97
698,3	654,75
698,486	555,81
698,671	-296,23
698,857	-347,5
699,042	445,25
699,227	362,73
699,413	-265,38
699,598	-378,75
699,783	793,35
699,969	760,1
700,154	25,04
700,339	-331,08
700,524	563,02
700,71	679,59
700,895	-583,85
701,08	-169,25
701,265	609,88
701,45	478,49
701,636	-124,78
701,821	-38,26
702,006	332,68
702,191	472,08
702,376	-137,6
702,561	-300,24
702,746	497,32
702,931	758,9
703,116	-172,85
703,301	-367,93
703,486	613,09
703,671	182,46
703,856	-98,74
704,041	-212,91
704,226	532,57
704,411	526,16
704,596	5404,03
704,781	-285,41
704,966	522,56
705,151	715,24
705,336	449,65
705,521	1818,04
705,706	2928,45
705,89	3502,48
706,075	3695,96
706,26	4145,81
706,445	4044,06
706,63	3085,87
706,814	2149,32
706,999	1625,36
707,184	2015,52
707,368	1681,44
707,553	712,03
707,738	238,15
707,923	808,17
708,107	594,66
708,292	-130,39
708,476	247,76
708,661	671,17
708,846	490,11
709,03	-125,58
709,215	-89,13
709,399	756,9
709,584	777,73
709,768	-397,18
709,953	87,53
710,137	226,53
710,322	577,04
710,506	-247,36
710,691	-260,18
710,875	514,95
711,06	264,58
711,244	-230,53
711,429	-356,32
711,613	500,12
711,797	636,32
711,982	-58,69
712,166	-336,29
712,35	327,07
712,535	619,5
712,719	-252,57
712,903	-513,74
713,088	586,25
713,272	385,96
713,456	-208,9
713,64	303,04
713,824	838,62
714,009	964,4
714,193	357,92
714,377	282,61
714,561	810,58
714,745	876,27
714,929	-43,86
715,113	39,86
715,298	833,41
715,482	504,13
715,666	-76,31
715,85	-298,23
716,034	757,7
716,218	359,12
716,402	-264,58
716,586	-333,88
716,77	691,2
716,954	667,17
717,138	-117,97
717,322	-155,23
717,506	622,3
717,689	583,45
717,873	-297,43
718,057	-329,08
718,241	713,23
718,425	319,06
718,609	-429,62
718,793	-171,25
718,976	420,81
719,16	408,79
719,344	-399,98
719,528	-207,7
719,711	439,64
719,895	395,97
720,079	-343,5
720,263	-171,65
720,446	582,24
720,63	446,45
720,814	-254,97
720,997	250,16
721,181	272,6
721,364	614,69
721,548	-208,1
721,732	-382,75
721,915	302,24
722,099	407,19
722,282	-357,52
722,466	-208,9
722,649	512,14
722,833	432,83
723,016	-337,49
723,2	-259,38
723,383	552,6
723,567	347,9
723,75	-111,16
723,934	-148,82
724,117	242,95
724,3	497,72
724,484	-349,51
724,667	-238,95
724,85	525,36
725,034	174,85
725,217	-266,59
725,4	-316,26
725,584	230,93
725,767	357,52
725,95	27,84
726,133	760,1
726,317	1269,64
726,5	1721,9
726,683	960,39
726,866	1212,76
727,049	1755,54
727,232	1378,6
727,416	660,36
727,599	469,28
727,782	1040,51
727,965	720,04
728,148	38,66
728,331	-193,28
728,514	437,63
728,697	577,44
728,88	-193,28
729,063	-389,56
729,246	677,98
729,429	603,47
729,612	-231,74
729,795	-93,94
729,978	387,56
730,161	440,84
730,344	-107,96
730,526	-331,88
730,709	318,26
730,892	331,48
731,075	-63,09
731,258	-341,5
731,441	494,92
731,623	237,74
731,806	-127,58
731,989	-324,27
732,172	771,32
732,354	503,73
732,537	100,75
732,72	-257,77
732,903	335,89
733,085	421,21
733,268	-394,77
733,451	-188,47
733,633	446,45
733,816	455,66
733,998	-47,87
734,181	-186,07
734,364	825
734,546	252,97
734,729	-378,75
734,911	27,84
735,094	762,51
735,276	495,32
735,459	-261,38
735,641	11,42
735,824	492,51
736,006	692
736,188	-73,11
736,371	-121,18
736,553	347,5
736,736	541,38
736,918	858,64
737,1	1852,49
737,283	4028,04
737,465	4926,14
737,647	5217,36
737,83	6548,89
738,012	7596,01
738,194	6152,32
738,376	4906,11
738,559	4171,05
738,741	4030,04
738,923	3135,55
739,105	2213,01
739,287	1494,37
739,469	1717,49
739,652	1556,06
739,834	456,46
740,016	79,52
740,198	648,34
740,38	562,21
740,562	-275,4
740,744	78,31
740,926	563,82
741,108	524,56
741,29	-315,46
741,472	25,84
741,654	847,43
741,836	381,55
742,018	-232,14
742,2	8,61
742,382	455,26
742,564	534,17
742,746	-214,51
742,928	-120,37
743,109	210,1
743,291	329,88
743,473	-356,32
743,655	53,88
743,837	401,58
744,019	365,13
744,2	-66,7
744,382	187,67
744,564	569,83
744,746	192,08
744,927	-143,61
745,109	-311,45
745,291	593,86
745,472	339,89
745,654	45,47
745,836	-67,9
746,017	527,77
746,199	499,72
746,38	-290,22
746,562	-162,03
746,744	337,89
746,925	579,84
747,107	-61,49
747,288	-25,04
747,47	484,9
747,651	495,32
747,833	-262,98
748,014	39,86
748,195	363,13
748,377	526,96
748,558	-331,08
748,74	-177,26
748,921	1143,06
749,102	1855,69
749,284	2562,31
749,465	3587,8
749,646	4980,22
749,828	5678,03
750,009	5881,93
750,19	5619,15
750,372	6812,07
750,553	7514,29
750,734	6707,92
750,915	6964,3
751,096	7729
751,278	6015,32
751,459	4291,62
751,64	3271,74
751,821	3579,39
752,002	2757,4
752,183	1844,87
752,364	1014,87
752,546	1112,21
752,727	1296,88
752,908	218,52
753,089	124,78
753,27	566,62
753,451	523,76
753,632	9,81
753,813	-347,5
753,994	547,79
754,175	477,69
754,356	103,15
754,536	-249,76
754,717	278,6
754,898	321,47
755,079	-219,72
755,26	-190,48
755,441	443,64
755,622	317,86
755,802	-349,91
755,983	-329,48
756,164	518,95
756,345	445,25
756,526	-256,97
756,706	-313,45
756,887	300,64
757,068	389,56
757,248	448,05
757,429	190,48
757,61	554,2
757,79	300,64
757,971	-138,8
758,152	-323,87
758,332	423,21
758,513	395,17
758,693	-257,77
758,874	-285,81
759,055	398,38
759,235	481,7
759,416	-101,95
759,596	-15,02
759,777	236,54
759,957	417,61
760,137	-225,73
760,318	11,82
760,498	177,26
760,679	189,27
760,859	-213,71
761,039	-7,01
761,22	525,76
761,4	526,96
761,581	82,72
761,761	493,72
761,941	1662,21
762,121	5640,38
762,302	11757,64
762,482	18185,76
762,662	24088,32
762,842	28185,46
763,023	33826,84
763,203	34499,81
763,383	27591
763,563	23682,93
763,743	20020,42
763,923	15899,25
764,104	12644,13
764,284	8647,13
764,464	5762,15
764,644	3589,4
764,824	2994,14
765,004	2466,98
765,184	2387,26
765,364	3540,93
765,544	5359,57
765,724	6221,62
765,904	6426,72
766,084	6880,57
766,264	6690,3
766,444	5339,14
766,624	4397,78
766,804	3906,26
766,983	3656,7
767,163	2510,24
767,343	1805,22
767,523	835,81
767,703	1389,01
767,883	661,56
768,062	361,52
768,242	75,91
768,422	948,78
768,602	1427,87
768,781	1634,97
768,961	2534,67
769,141	3706,37
769,32	4230,73
769,5	3901,86
769,68	3701,17
769,859	3512,09
770,039	3539,73
770,219	1921,79
770,398	1763,96
770,578	1667,02
770,757	1653
770,937	1339,74
771,116	3026,99
771,296	6229,23
771,475	8509,34
771,655	9283,66
771,834	10623,2
772,014	13215,76
772,193	12583,24
772,373	9133,84
772,552	8297,03
772,731	7067,24
772,911	5968,85
773,09	3577,39
773,269	2060,79
773,449	1701,07
773,628	1083,77
773,807	293,83
773,987	641,13
774,166	681,99
774,345	567,82
774,524	44,26
774,704	-249,36
774,883	717,64
775,062	486,51
775,241	-156,43
775,42	-95,94
775,6	271,39
775,779	377,15
775,958	-263,38
776,137	-106,75
776,316	419,61
776,495	504,93
776,674	83,12
776,853	-166,84
777,032	493,32
777,211	146,81
777,39	33,85
777,569	-212,91
777,748	387,16
777,927	376,35
778,106	-81,92
778,285	-220,52
778,464	242,15
778,643	442,84
778,822	-106,75
779	-289,02
779,179	537,78
779,358	521,36
779,537	-100,35
779,716	8,61
779,894	344,3
780,073	588,65
780,252	13,02
780,431	-101,55
780,609	566,22
780,788	411,6
780,967	-341,5
781,145	-146,01
781,324	594,26
781,503	328,28
781,681	-486,1
781,86	-195,68
782,039	384,76
782,217	309,45
782,396	-299,83
782,574	-436,83
782,753	527,77
782,931	468,88
783,11	-48,67
783,288	-170,85
783,467	329,88
783,645	285,01
783,824	-220,12
784,002	-361,12
784,18	308,25
784,359	478,89
784,537	-302,24
784,716	20,63
784,894	179,66
785,072	279,41
785,251	122,38
785,429	-148,01
785,607	420,41
785,785	328,68
785,964	-199,69
786,142	-91,13
786,32	358,32
786,498	253,37
786,677	-258,57
786,855	-287,82
787,033	313,85
787,211	612,69
787,389	-291,02
787,567	24,64
787,745	283,41
787,923	347,5
788,102	-79,52
788,28	-303,44
788,458	385,96
788,636	322,67
788,814	-285,01
788,992	-131,19
789,17	173,25
789,348	233,74
789,526	-415,6
789,703	592,26
789,881	515,35
790,059	449,25
790,237	-334,28
790,415	-170,45
790,593	542,99
790,771	293,02
790,949	-25,44
791,126	-170,45
791,304	354,31
791,482	216,11
791,66	-53,88
791,837	-139,6
792,015	158,03
792,193	320,26
792,371	-389,16
792,548	-308,65
792,726	279
792,904	488,51
793,081	-32,25
793,259	188,07
793,436	1292,47
793,614	2234,64
793,792	3538,13
793,969	4299,23
794,147	5894,75
794,324	6580,94
794,502	6539,28
794,679	5334,73
794,857	4549,19
795,034	3679,93
795,212	2277,5
795,389	1320,11
795,567	1471,53
795,744	1351,36
795,921	756,5
796,099	111,16
796,276	917,53
796,453	569,02
796,631	-275
796,808	-98,74
796,985	270,99
797,163	432,03
797,34	97,14
797,517	-84,32
797,694	325,47
797,872	543,39
798,049	-182,46
798,226	103,55
798,403	399,18
798,58	278,6
798,757	421,21
798,935	-26,24
799,112	697,61
799,289	918,73
799,466	1039,31
799,643	1939,81
799,82	3183,21
799,997	3947,12
800,174	4716,24
800,351	5693,65
800,528	6804,86
800,705	7210,65
800,882	7365,28
801,059	7529,11
801,236	7646,48
801,413	5375,59
801,589	3577,39
801,766	2794,65
801,943	2484,2
802,12	1636,57
802,297	1068,15
802,474	633,12
802,651	1210,76
802,827	904,71
803,004	-85,92
803,181	111,56
803,358	741,68
803,534	537,78
803,711	44,66
803,888	109,96
804,064	905,51
804,241	520,15
804,418	-27,84
804,594	-286,62
804,771	325,87
804,947	254,57
805,124	-61,49
805,301	-232,54
805,477	446,05
805,654	602,67
805,83	36,25
806,007	68,7
806,183	453,66
806,36	353,11
806,536	33,45
806,712	-43,46
806,889	322,67
807,065	666,77
807,242	64,69
807,418	57,08
807,594	666,37
807,771	427,62
807,947	627,51
808,123	-37,85
808,3	656,75
808,476	505,73
808,652	-64,69
808,829	168,84
809,005	1876,12
809,181	3310,6
809,357	4456,26
809,533	5936,41
809,71	7436,18
809,886	8487,7
810,062	9991,08
810,238	11439,18
810,414	16188,47
810,59	20034,04
810,766	22282,9
810,942	23185,81
811,118	26529,46
811,294	24818,18
811,47	16127,58
811,646	11994,79
811,822	9605,32
811,998	7128,53
812,174	4803,56
812,35	3413,55
812,526	3324,62
812,702	2522,66
812,878	2177,36
813,054	1105,8
813,23	1663,41
813,405	1297,68
813,581	779,73
813,757	378,75
813,933	677,58
814,109	1227,18
814,284	58,28
814,46	37,85
814,636	817,79
814,812	655,15
814,987	79,52
815,163	170,45
815,339	914,33
815,514	360,72
815,69	104,35
815,866	-40,26
816,041	656,35
816,217	657,95
816,392	267,79
816,568	166,44
816,743	1448,3
816,919	2906,41
817,094	7221,07
817,27	13197,73
817,445	18380,85
817,621	20795,14
817,796	23299,17
817,972	24752,48
818,147	25608,12
818,322	27403,52
818,498	32321,05
818,673	36103,74
818,849	41227,16
819,024	42481,78
819,199	40970,39
819,375	30443,13
819,55	20604,07
819,725	17360,17
819,9	12024,03
820,076	9802,41
820,251	8129,58
820,426	6070,2
820,601	4535,17
820,776	3358,67
820,952	3403,93
821,127	2826,7
821,302	1432,28
821,477	1594,11
821,652	1328,13
821,827	1826,05
822,002	371,54
822,177	54,68
822,352	806,17
822,527	403,99
822,702	-99,14
822,877	-136
823,052	886,69
823,227	391,57
823,402	-73,91
823,577	-97,94
823,752	466,08
823,927	439,64
824,102	-282,21
824,277	-30,64
824,451	299,83
824,626	292,22
824,801	-54,28
824,976	85,12
825,151	1264,83
825,325	2294,73
825,5	2414,9
825,675	2638,42
825,85	4590,05
826,024	4577,24
826,199	4079,31
826,374	3138,75
826,548	2614,79
826,723	2275,5
826,897	1395,82
827,072	1026,49
827,247	1149,07
827,421	935,96
827,596	308,25
827,77	75,51
827,945	504,13
828,119	948,78
828,294	-45,47
828,468	23,83
828,643	758,1
828,817	381,55
828,992	1511,99
829,166	-313,85
829,34	405,59
829,515	361,12
829,689	-218,92
829,864	-176,46
830,038	344,7
830,212	231,74
830,386	-98,34
830,561	-321,07
830,735	438,03
830,909	397,98
831,084	-442,44
831,258	143,21
831,432	508,54
831,606	298,63
831,78	-71,9
831,954	-403,18
832,129	480,5
832,303	316,26
832,477	-160,83
832,651	-142,41
832,825	824,6
832,999	243,75
833,173	-194,08
833,347	-79,11
833,521	409,19
833,695	225,33
833,869	-147,21
834,043	-323,47
834,217	210,51
834,391	154,82
834,565	328,28
834,739	-240,55
834,913	162,44
835,086	327,47
835,26	-27,84
835,434	-222,92
835,608	360,72
835,782	428,42
835,956	-125,18
836,129	-17,83
836,303	473,69
836,477	105,15
836,651	-246,16
836,824	-447,25
836,998	446,05
837,172	456,46
837,345	-291,02
837,519	-75,11
837,693	488,91
837,866	319,46
838,04	-244,96
838,213	156,43
838,387	289,82
838,56	339,89
838,734	-381,55
838,907	103,15
839,081	575,03
839,254	547,79
839,428	810,98
839,601	1545,64
839,775	3092,68
839,948	3622,65
840,122	3226,08
840,295	4042,86
840,468	4914,12
840,642	4606,08
840,815	2901,61
840,988	2620,4
841,162	3932,3
841,335	4703,82
841,508	5289,87
841,682	5611,94
841,855	7045,21
842,028	6923,84
842,201	6513,64
842,374	5449,7
842,548	4220,72
842,721	3611,44
842,894	2265,08
843,067	2018,73
843,24	2184,17
843,413	1641,38
843,586	833,01
843,759	627,11
843,932	948,78
844,105	661,56
844,278	244,15
844,451	647,14
844,624	510,54
844,797	378,35
844,97	-323,47
845,143	-35,85
845,316	458,87
845,489	602,27
845,662	-229,73
845,835	-358,32
846,008	88,73
846,18	178,86
846,353	-381,15
846,526	105,15
846,699	378,75
846,872	196,89
847,044	-411,6
847,217	-576,64
847,39	335,09
847,563	285,81
847,735	-194,48
847,908	-427,62
848,081	530,97
848,253	193,68
848,426	-562,62
848,598	-229,33
848,771	549,8
848,944	176,06
849,116	-459,67
849,289	-315,86
849,461	136,4
849,634	601,07
849,806	-362,73
849,979	-622,7
850,151	155,23
850,324	271,39
850,496	-345,1
850,668	-225,73
850,841	948,37
851,013	827,8
851,186	528,97
851,358	933,95
851,53	1652,6
851,703	1478,74
851,875	1104,6
852,047	944,77
852,219	3305,79
852,392	1129,04
852,564	429,22
852,736	-13,82
852,908	787,74
853,081	738,87
853,253	-159,23
853,425	-305,04
853,597	590,26
853,769	462,87
853,941	-499,72
854,113	-363,13
854,285	521,36
854,457	403,59
854,63	-383,96
854,802	-313,45
854,974	279,41
855,146	506,53
855,318	-465,68
855,489	-157,23
855,661	144,81
855,833	188,47
856,005	-83,12
856,177	-203,7
856,349	214,11
856,521	292,22
856,693	-402,78
856,865	-349,11
857,036	62,29
857,208	283,41
857,38	-337,89
857,552	-125,18
857,723	84,72
857,895	285,81
858,067	-537,78
858,239	-549
858,41	430,42
858,582	448,85
858,754	-496,92
858,925	-383,96
859,097	275
859,268	21,43
859,44	-410,8
859,612	-447,25
859,783	465,68
859,955	310,65
860,126	-530,57
860,298	-434,43
860,469	389,56
860,641	173,25
860,812	-426,82
860,983	-567,82
861,155	267,39
861,326	473,29
861,498	-362,73
861,669	-508,94
861,84	111,96
862,012	425,22
862,183	-480,1
862,354	-592,66
862,526	392,77
862,697	140,4
862,868	-413,6
863,039	-384,36
863,211	261,78
863,382	291,02
863,553	-456,46
863,724	-332,68
863,895	186,47
864,066	184,87
864,238	-317,86
864,409	-496,92
864,58	409,59
864,751	656,35
864,922	-295,83
865,093	-339,49
865,264	284,21
865,435	292,62
865,606	-456,86
865,777	-409,19
865,948	313,85
866,119	253,37
866,29	-59,09
866,461	-358,32
866,632	719,24
866,802	610,28
866,973	-106,75
867,144	41,46
867,315	745,28
867,486	476,89
867,657	-474,49
867,827	-328,28
867,998	137,6
868,169	285,01
868,34	-312,65
868,51	338,29
868,681	362,33
868,852	493,32
869,022	-208,1
869,193	-159,23
869,364	295,03
869,534	533,37
869,705	-297,43
869,875	-371,14
870,046	117,97
870,217	201,69
870,387	-388,36
870,558	-162,03
870,728	218,52
870,899	212,91
871,069	-326,27
871,239	-488,91
871,41	44,66
871,58	199,69
871,751	-609,88
871,921	-241,35
872,091	304,24
872,262	748,49
872,432	-629,11
872,602	-506,53
872,773	101,95
872,943	155,63
873,113	-455,66
873,284	-180,06
873,454	702,02
873,624	557,01
873,794	-397,98
873,964	-219,32
874,135	167,64
874,305	440,84
874,475	-340,69
874,645	-428,02
874,815	295,83
874,985	462,47
875,155	-649,94
875,325	-532,97
875,495	468,08
875,665	914,73
875,835	-256,57
876,005	-279,41
876,175	422,01
876,345	105,15
876,515	-536,98
876,685	-479,7
876,855	332,28
877,025	499,32
877,195	-729,26
877,365	-460,87
877,534	446,85
877,704	421,61
877,874	-596,26
878,044	-81,52
878,214	374,74
878,383	97,54
878,553	-525,76
878,723	-267,39
878,892	303,04
879,062	287,02
879,232	-413,2
879,401	-212,91
879,571	497,72
879,741	599,87
879,91	-98,74
880,08	-148,82
880,249	363,53
880,419	337,89
880,589	-404,79
880,758	-240,55
880,928	287,02
881,097	436,03
881,267	-663,16
881,436	-300,24
881,605	277,4
881,775	262,98
881,944	-714,84
882,114	-144,81
882,283	126,78
882,452	436,03
882,622	-281,81
882,791	-623,9
882,96	494,92
883,13	571,83
883,299	-590,26
883,468	-407,19
883,637	298,23
883,807	624,71
883,976	-496,92
884,145	-593,46
884,314	144,81
884,483	311,05
884,652	-386,76
884,822	-617,9
884,991	341,9
885,16	224,12
885,329	-340,29
885,498	-609,88
885,667	276,6
885,836	199,69
886,005	-166,84
886,174	-33,85
886,343	208,1
886,512	248,16
886,681	-406,79
886,85	-355,11
887,019	247,36
887,187	428,82
887,356	-234,94
887,525	342,3
887,694	244,15
887,863	313,05
888,032	-564,62
888,2	-248,16
888,369	396,37
888,538	525,76
888,707	-379,55
888,875	-446,45
889,044	333,88
889,213	220,12
889,381	-510,94
889,55	-428,42
889,719	402,38
889,887	451,25
890,056	-412,4
890,224	-383,96
890,393	657,15
890,562	163,24
890,73	-285,41
890,899	-485,3
891,067	401,98
891,236	528,97
891,404	-366,33
891,573	-472,89
891,741	446,45
891,909	325,07
892,078	-491,71
892,246	-113,16
892,415	748,89
892,583	668,77
892,751	-634,72
892,92	-340,69
893,088	292,22
893,256	315,06
893,424	-238,95
893,593	85,92
893,761	228,13
893,929	669,57
894,097	-546,99
894,265	-446,45
894,434	379,15
894,602	446,85
894,77	-301,04
894,938	-413,6
895,106	454,46
895,274	211,71
895,442	-494,92
895,61	-620,3
895,778	361,12
895,946	566,62
896,114	-307,85
896,282	-389,16
896,45	332,68
896,618	337,09
896,786	-317,46
896,954	-567,42
897,122	718,44
897,29	901,91
897,458	-520,15
897,625	-551
897,793	297,03
897,961	358,32
898,129	-301,04
898,297	-588,25
898,464	281,41
898,632	517,35
898,8	-514,15
898,968	-658,35
899,135	268,19
899,303	323,87
899,471	-260,58
899,638	-312,25
899,806	121,18
899,973	289,82
900,141	-648,34
900,309	-451,25
900,476	350,31
900,644	191,28
900,811	-138,4
900,979	-437,63
901,146	142,01
901,314	317,06
901,481	-430,42
901,649	-414
901,816	255,37
901,983	318,66
902,151	-367,53
