Data from Subt6__2__16-03-11-132.txt Node

Date: Thu Feb 19 16:03:11 CET 2026
User: Versuch 234
Spectrometer: USB4F05580
Trigger mode: 4
Integration Time (sec): 1,500000E0
Scans to average: 5
Electric dark correction enabled: true
Nonlinearity correction enabled: false
Boxcar width: 0
XAxis mode: Wavelengths
Number of Pixels in Spectrum: 3648
>>>>>Begin Spectral Data<<<<<
197,409	-1065,34
197,623	-1065,34
197,837	-1065,34
198,051	-1145,46
198,265	-1139,05
198,479	729,26
198,693	313,45
198,907	-398,78
199,122	-484,5
199,336	398,78
199,55	498,12
199,763	-599,87
199,977	10,21
200,191	551,8
200,405	345,1
200,619	-730,46
200,833	-633,12
201,047	426,02
201,261	436,83
201,475	-700,82
201,689	-470,88
201,903	700,42
202,117	1301,29
202,331	-442,44
202,545	-390,37
202,758	694,81
202,972	829,8
203,186	172,85
203,4	-197,69
203,614	629,51
203,828	425,22
204,041	-506,13
204,255	-266,59
204,469	405,19
204,683	422,81
204,897	-552,6
205,11	-519,75
205,324	501,73
205,538	1121,43
205,752	-440,04
205,965	-692,4
206,179	335,89
206,393	951,58
206,606	-223,72
206,82	-367,53
207,034	903,51
207,248	630,71
207,461	-489,31
207,675	-542,19
207,889	588,65
208,102	589,45
208,316	-260,98
208,529	-553
208,743	607,08
208,957	647,94
209,17	-308,25
209,384	-416
209,597	394,77
209,811	613,09
210,025	-108,36
210,238	-476,49
210,452	877,47
210,665	533,77
210,879	-439,64
211,092	-631,11
211,306	787,74
211,519	391,57
211,733	-620,3
211,946	-450,85
212,16	365,93
212,373	518,95
212,587	-170,45
212,8	-483,3
213,014	389,16
213,227	627,51
213,44	-459,67
213,654	-516,15
213,867	506,53
214,081	518,15
214,294	-603,07
214,507	-590,66
214,721	353,51
214,934	394,37
215,148	-358,32
215,361	-448,85
215,574	302,64
215,788	706,82
216,001	-583,05
216,214	-644,33
216,428	370,74
216,641	468,08
216,854	-561,01
217,067	-597,47
217,281	623,5
217,494	625,11
217,707	-480,9
217,92	-335,09
218,134	569,83
218,347	307,85
218,56	-377,15
218,773	-669,97
218,986	546,59
219,2	398,38
219,413	-633,52
219,626	-426,02
219,839	508,14
220,052	695,61
220,265	-631,92
220,479	-302,24
220,692	686,4
220,905	210,51
221,118	-114,37
221,331	-387,56
221,544	978,82
221,757	560,61
221,97	-340,69
222,183	-345,9
222,396	544,19
222,609	1069,35
222,822	178,86
223,035	-35,45
223,249	595,86
223,462	641,53
223,675	-573,03
223,887	-685,59
224,1	521,36
224,313	519,75
224,526	-617,09
224,739	-761,3
224,952	599,07
225,165	514,55
225,378	-250,16
225,591	-130,79
225,804	898,3
226,017	590,26
226,23	45,47
226,443	-448,85
226,656	664,36
226,868	605,08
227,081	-440,04
227,294	-367,13
227,507	388,36
227,72	772,52
227,933	-557,01
228,145	-440,04
228,358	684,79
228,571	357,92
228,784	-617,5
228,997	-434,43
229,209	438,84
229,422	622,7
229,635	-660,76
229,848	-357,52
230,06	601,07
230,273	447,25
230,486	-466,48
230,698	-400,38
230,911	363,93
231,124	603,07
231,336	-424,42
231,549	-202,89
231,762	407,99
231,974	597,07
232,187	-438,44
232,4	-559,41
232,612	520,55
232,825	215,31
233,038	-721,65
233,25	-83,12
233,463	571,83
233,675	667,17
233,888	-376,75
234,1	-628,71
234,313	475,69
234,526	478,89
234,738	-656,35
234,951	-398,78
235,163	650,74
235,376	642,73
235,588	-245,76
235,801	-427,62
236,013	657,15
236,226	460,07
236,438	51,47
236,65	-302,64
236,863	480,1
237,075	477,69
237,288	-678,38
237,5	-489,71
237,713	447,25
237,925	786,54
238,137	-375,14
238,35	-395,17
238,562	393,17
238,774	444,44
238,987	-455,26
239,199	-567,02
239,411	542,99
239,624	469,28
239,836	-434,43
240,048	-593,46
240,261	391,17
240,473	885,88
240,685	-471,68
240,897	-322,67
241,11	678,38
241,322	598,67
241,534	-435,23
241,746	-460,47
241,959	343,9
242,171	706,42
242,383	-325,87
242,595	-383,16
242,807	320,26
243,02	456,46
243,232	-440,04
243,444	-316,26
243,656	372,34
243,868	563,42
244,08	-486,91
244,293	-472,08
244,505	1076,16
244,717	538,58
244,929	-625,91
245,141	-458,46
245,353	728,46
245,565	517,35
245,777	-371,54
245,989	-247,76
246,201	656,35
246,413	430,82
246,625	-368,33
246,837	-520,55
247,049	480,5
247,261	511,74
247,473	-246,96
247,685	-273,4
247,897	359,12
248,109	583,45
248,321	-571,03
248,533	-570,23
248,745	590,66
248,957	1017,27
249,169	-514,55
249,381	-464,87
249,593	680,79
249,804	722,05
250,016	-513,74
250,228	-621,9
250,44	224,53
250,652	527,36
250,864	-686,8
251,075	-89,93
251,287	785,74
251,499	903,11
251,711	-523,76
251,923	-576,24
252,134	788,14
252,346	599,87
252,558	-421,61
252,77	-164,84
252,982	690
253,193	605,88
253,405	-403,59
253,617	-62,69
253,828	464,07
254,04	504,13
254,252	-482,9
254,463	-368,33
254,675	845,43
254,887	527,77
255,098	-367,93
255,31	-623,1
255,522	480,9
255,733	752,49
255,945	-409,99
256,157	-690,8
256,368	420,81
256,58	691,2
256,791	-700,01
257,003	-275,8
257,214	266,59
257,426	387,96
257,637	-522,96
257,849	-693,61
258,061	784,54
258,272	469,68
258,484	-570,63
258,695	-148,01
258,907	628,31
259,118	350,71
259,329	-529,37
259,541	-497,32
259,752	632,72
259,964	770,92
260,175	-523,36
260,387	-418,41
260,598	1147,86
260,809	413,6
261,021	-104,35
261,232	-416,4
261,444	587,45
261,655	490,51
261,866	-540,18
262,078	-454,06
262,289	810,58
262,5	583,05
262,712	-316,66
262,923	-295,43
263,134	605,48
263,345	691,2
263,557	-542,59
263,768	-433,23
263,979	481,7
264,191	499,72
264,402	-393,57
264,613	-569,02
264,824	579,84
265,035	715,64
265,247	-444,44
265,458	-340,29
265,669	410,8
265,88	545,79
266,091	-103,15
266,302	-591,06
266,514	512,14
266,725	561,81
266,936	-494,52
267,147	-225,33
267,358	418,41
267,569	196,89
267,78	-302,64
267,991	-450,05
268,202	568,22
268,414	801,76
268,625	-656,75
268,836	-517,35
269,047	497,72
269,258	338,29
269,469	-654,75
269,68	-244,15
269,891	379,15
270,102	652,35
270,313	-388,76
270,524	-514,15
270,735	545,79
270,945	569,02
271,156	-283,41
271,367	-304,24
271,578	428,82
271,789	429,62
272	-456,06
272,211	-551,4
272,422	296,23
272,633	516,15
272,844	-358,32
273,054	-363,93
273,265	460,47
273,476	572,23
273,687	-641,13
273,898	-631,92
274,109	361,92
274,319	557,41
274,53	-170,85
274,741	-565,02
274,952	591,46
275,162	526,96
275,373	-435,63
275,584	-536,98
275,795	483,3
276,005	603,07
276,216	-225,73
276,427	-541,79
276,637	419,61
276,848	482,1
277,059	-628,31
277,269	-99,94
277,48	454,46
277,691	823,79
277,901	-105,95
278,112	-359,12
278,323	382,35
278,533	297,43
278,744	-337,49
278,954	-576,64
279,165	549,8
279,376	488,11
279,586	-134,39
279,797	-504,93
280,007	444,84
280,218	552,6
280,428	-607,48
280,639	-259,78
280,849	634,32
281,06	549,4
281,27	-173,65
281,481	-494,92
281,691	532,17
281,902	431,63
282,112	-140,4
282,322	-290,62
282,533	622,3
282,743	618,7
282,954	-200,89
283,164	-405,19
283,374	502,93
283,585	540,98
283,795	-270,59
284,006	-323,07
284,216	319,46
284,426	539,38
284,637	-416,4
284,847	-478,49
285,057	534,57
285,268	953,98
285,478	-567,82
285,688	-301,84
285,898	771,72
286,109	392,77
286,319	-186,07
286,529	-266,59
286,739	451,65
286,95	337,89
287,16	-500,93
287,37	9,41
287,58	341,09
287,79	341,9
288,001	-291,82
288,211	-611,89
288,421	458,46
288,631	483,3
288,841	-338,69
289,051	-457,66
289,261	301,44
289,471	462,47
289,682	-266,59
289,892	-69,5
290,102	399,98
290,312	468,88
290,522	-300,64
290,732	-235,34
290,942	513,74
291,152	806,17
291,362	-121,98
291,572	-166,44
291,782	815,78
291,992	405,99
292,202	-396,37
292,412	389,97
292,622	228,53
292,832	325,07
293,042	-277,4
293,252	-587,45
293,462	25,44
293,672	111,56
293,881	-377,95
294,091	-343,5
294,301	396,78
294,511	255,77
294,721	-448,05
294,931	-291,42
295,141	215,71
295,35	193,28
295,56	209,7
295,77	-181,66
295,98	537,38
296,19	31,05
296,4	-246,96
296,609	-190,48
296,819	505,73
297,029	99,14
297,239	-211,71
297,448	-456,46
297,658	155,63
297,868	254,97
298,077	-159,23
298,287	32,65
298,497	678,78
298,706	209,7
298,916	-284,61
299,126	-504,93
299,335	2,2
299,545	680,79
299,755	-180,06
299,964	-365,13
300,174	107,96
300,384	-12,62
300,593	-300,64
300,803	-248,96
301,012	528,17
301,222	21,43
301,431	-349,91
301,641	-277
301,851	21,83
302,06	36,65
302,27	-376,75
302,479	-293,83
302,689	7,81
302,898	346,7
303,107	-327,47
303,317	-272,19
303,526	541,38
303,736	101,95
303,945	83,12
304,155	-438,84
304,364	231,74
304,574	426,02
304,783	-389,97
304,992	-284,61
305,202	527,77
305,411	61,89
305,62	-476,49
305,83	-288,22
306,039	1387,41
306,248	103,15
306,458	-390,77
306,667	-327,07
306,876	93,54
307,086	630,31
307,295	-5,81
307,504	-370,34
307,713	-2,2
307,923	13,42
308,132	-297,83
308,341	-273
308,55	196,48
308,76	570,63
308,969	-30,24
309,178	-494,52
309,387	453,26
309,596	63,09
309,805	-89,93
310,015	-216,51
310,224	725,25
310,433	207,3
310,642	-305,04
310,851	-381,95
311,06	285,41
311,269	175,25
311,478	-394,77
311,687	-529,77
311,896	39,86
312,106	222,12
312,315	-194,48
312,524	-266,19
312,733	-57,88
312,942	138
313,151	-462,87
313,36	-387,16
313,569	126,78
313,778	329,88
313,987	-450,45
314,195	-246,56
314,404	625,11
314,613	136,4
314,822	-295,03
315,031	-351,11
315,24	158,83
315,449	453,26
315,658	-369,14
315,867	-293,43
316,076	524,16
316,284	306,24
316,493	-335,49
316,702	-210,1
316,911	45,07
317,12	411,6
317,329	-463,67
317,537	-463,67
317,746	150,82
317,955	45,07
318,164	-322,27
318,372	-316,66
318,581	34,25
318,79	327,47
318,999	-152,82
319,207	-192,08
319,416	320,26
319,625	110,76
319,833	-384,36
320,042	-502,93
320,251	266,99
320,459	154,02
320,668	-141,61
320,877	-380,75
321,085	192,08
321,294	412,8
321,502	-536,58
321,711	-420,41
321,92	109,96
322,128	451,65
322,337	-396,37
322,545	-300,24
322,754	417,2
322,962	9,81
323,171	-380,75
323,379	-427,62
323,588	327,47
323,796	625,91
324,005	-437,23
324,213	-458,46
324,422	91,93
324,63	57,48
324,839	363,53
325,047	-284,21
325,256	230,13
325,464	597,47
325,672	-74,71
325,881	-199,69
326,089	339,49
326,297	209,7
326,506	-81,92
326,714	-203,7
326,923	129,59
327,131	394,37
327,339	-327,47
327,548	-161,23
327,756	481,3
327,964	497,72
328,172	8,61
328,381	-140,8
328,589	840,22
328,797	1048,92
329,005	487,31
329,214	1055,33
329,422	2485
329,63	2712,93
329,838	2000,3
330,046	1876,12
330,255	2343,6
330,463	1787,99
330,671	1024,49
330,879	1128,24
331,087	1501,58
331,295	1235,99
331,503	228,13
331,712	-274,2
331,92	543,39
332,128	321,47
332,336	-85,52
332,544	-74,31
332,752	477,69
332,96	226,93
333,168	-412,8
333,376	-112,36
333,584	252,57
333,792	34,65
334	-236,94
334,208	-202,89
334,416	355,92
334,624	-5,01
334,832	-208,9
335,04	-442,44
335,248	347,1
335,456	400,78
335,664	-318,26
335,872	-286,62
336,08	226,13
336,287	497,72
336,495	-399,98
336,703	-249,36
336,911	-7,81
337,119	197,29
337,327	-373,14
337,535	-185,67
337,742	605,48
337,95	233,34
338,158	33,85
338,366	-455,66
338,573	518,55
338,781	127,18
338,989	-219,32
339,197	-450,05
339,404	622,7
339,612	248,96
339,82	-257,37
340,028	-266,19
340,235	544,99
340,443	86,33
340,651	-404,39
340,858	-475,69
341,066	414,4
341,274	557,01
341,481	-413,2
341,689	-461,67
341,896	149,22
342,104	290,62
342,312	-392,37
342,519	-449,25
342,727	180,06
342,934	198,89
343,142	-421,61
343,349	-174,05
343,557	67,5
343,765	159,63
343,972	-91,53
344,18	-169,65
344,387	251,76
344,594	399,18
344,802	-355,92
345,009	-480,9
345,217	314,26
345,424	77,91
345,632	95,94
345,839	-337,09
346,047	367,53
346,254	514,55
346,461	-339,89
346,669	-217,72
346,876	136,8
347,083	347,1
347,291	-365,13
347,498	-65,9
347,705	97,94
347,913	270,99
348,12	-419,61
348,327	-236,94
348,535	404,39
348,742	556,21
348,949	-283,01
349,156	-93,94
349,364	125,98
349,571	89,13
349,778	-52,68
349,985	-411,2
350,192	357,92
350,4	-61,09
350,607	-423,61
350,814	-308,25
351,021	248,16
351,228	215,31
351,435	-316,66
351,643	-153,22
351,85	336,69
352,057	341,09
352,264	-378,35
352,471	-307,85
352,678	267,79
352,885	124,78
353,092	-55,08
353,299	-243,75
353,506	92,73
353,713	236,94
353,92	-312,65
354,127	-81,92
354,334	672,37
354,541	181,66
354,748	-330,28
354,955	-405,19
355,162	200,09
355,369	98,74
355,576	-192,88
355,783	-268,59
355,99	372,34
356,197	186,47
356,404	-379,15
356,611	-220,52
356,817	635,92
357,024	132,79
357,231	-349,11
357,438	-389,16
357,645	341,9
357,852	230,13
358,058	-363,93
358,265	-312,65
358,472	200,49
358,679	439,24
358,885	-97,14
359,092	-522,96
359,299	484,5
359,506	617,9
359,712	-140,8
359,919	-334,69
360,126	353,91
360,333	100,35
360,539	-374,74
360,746	-280,61
360,953	422,41
361,159	401,58
361,366	-309,05
361,572	133,19
361,779	256,57
361,986	595,06
362,192	-366,73
362,399	-281,41
362,605	739,27
362,812	77,51
363,019	140,4
363,225	-89,93
363,432	425,62
363,638	446,45
363,845	-300,64
364,051	-436,03
364,258	161,23
364,464	179,26
364,671	71,1
364,877	-466,48
365,084	439,24
365,29	405,99
365,496	-248,16
365,703	-447,25
365,909	335,09
366,116	349,51
366,322	-224,93
366,528	-320,26
366,735	291,82
366,941	294,63
367,147	-146,01
367,354	-33,85
367,56	438,03
367,766	383,16
367,973	-375,54
368,179	-259,38
368,385	697,21
368,592	286,21
368,798	-168,44
369,004	-416,4
369,21	364,73
369,417	194,48
369,623	-508,94
369,829	26,64
370,035	388,76
370,241	238,55
370,448	-458,87
370,654	-418,81
370,86	343,9
371,066	374,34
371,272	-212,11
371,478	-396,78
371,684	2442,14
371,891	454,06
372,097	-416,8
372,303	-282,21
372,509	369,14
372,715	540,18
372,921	-380,75
373,127	-313,45
373,333	307,45
373,539	146,41
373,745	-291,02
373,951	-599,07
374,157	110,76
374,363	194,08
374,569	-171,25
374,775	106,35
374,981	698,41
375,187	220,12
375,393	-244,96
375,599	-326,67
375,804	293,43
376,01	95,54
376,216	-427,62
376,422	-308,25
376,628	352,31
376,834	264,58
377,04	0,6
377,246	-88,33
377,451	578,64
377,657	304,24
377,863	-214,11
378,069	-121,98
378,274	303,04
378,48	151,22
378,686	-361,52
378,892	-299,83
379,097	637,52
379,303	605,48
379,509	-510,14
379,715	316,66
379,92	873,87
380,126	270,19
380,332	34,65
380,537	79,52
380,743	186,87
380,949	609,88
381,154	-437,63
381,36	-271,79
381,565	129,99
381,771	89,93
381,977	-483,7
382,182	-298,23
382,388	220,92
382,593	456,86
382,799	-141,61
383,004	-463,27
383,21	347,1
383,415	307,05
383,621	-16,62
383,826	-260,58
384,032	148,82
384,237	710,43
384,443	-534,17
384,648	-509,74
384,854	575,03
385,059	815,78
385,265	-226,93
385,47	-37,45
385,675	536,58
385,881	391,57
386,086	-370,74
386,291	-543,39
386,497	562,62
386,702	233,74
386,907	-258,98
387,113	-215,31
387,318	281,41
387,523	478,89
387,729	-490,11
387,934	-534,98
388,139	242,15
388,344	80,72
388,55	-285,01
388,755	-286,21
388,96	165,64
389,165	346,7
389,371	-303,44
389,576	-207,3
389,781	-27,84
389,986	498,52
390,191	-256,17
390,396	-467,28
390,601	566,62
390,807	347,5
391,012	-287,02
391,217	-337,09
391,422	343,9
391,627	482,5
391,832	-215,71
392,037	-278,6
392,242	329,48
392,447	608,68
392,652	-527,77
392,857	-472,08
393,062	319,86
393,267	283,01
393,472	-303,44
393,677	-175,65
393,882	367,13
394,087	215,71
394,292	-293,02
394,497	-246,96
394,702	353,11
394,907	337,89
395,112	-43,06
395,317	-354,71
395,521	541,38
395,726	260,58
395,931	-97,94
396,136	-527,77
396,341	740,47
396,546	179,66
396,75	-387,96
396,955	-50,67
397,16	661,56
397,365	317,06
397,57	85,12
397,774	-351,51
397,979	378,75
398,184	515,35
398,389	-577,84
398,593	-413,2
398,798	471,68
399,003	177,66
399,207	-255,37
399,412	-193,28
399,617	156,83
399,821	438,03
400,026	-247,36
400,231	-121,58
400,435	122,78
400,64	349,91
400,844	-271,39
401,049	-133,59
401,254	626,31
401,458	280,61
401,663	84,32
401,867	-73,11
402,072	186,87
402,276	412,4
402,481	-217,72
402,685	-504,13
402,89	369,94
403,094	288,62
403,299	-351,11
403,503	-439,24
403,708	737,67
403,912	273,8
404,116	-182,87
404,321	-260,98
404,525	383,16
404,73	530,57
404,934	-326,27
405,138	-180,06
405,343	598,27
405,547	741,27
405,751	-129,59
405,956	-169,65
406,16	611,49
406,364	910,32
406,569	-119,97
406,773	-484,1
406,977	490,51
407,181	671,57
407,386	-398,38
407,59	-42,66
407,794	580,64
407,998	197,29
408,202	-315,06
408,407	-403,59
408,611	264,98
408,815	186,07
409,019	-205,3
409,223	-439,24
409,427	486,91
409,632	546,59
409,836	-317,86
410,04	-103,55
410,244	420,41
410,448	215,31
410,652	-153,62
410,856	-468,08
411,06	342,7
411,264	385,56
411,468	-309,05
411,672	-292,62
411,876	185,27
412,08	434,83
412,284	-266,59
412,488	-466,48
412,692	563,02
412,896	410,39
413,1	-386,76
413,304	-319,46
413,508	576,24
413,712	348,71
413,916	-365,13
414,12	-305,44
414,323	432,83
414,527	188,07
414,731	242,15
414,935	-357,92
415,139	467,28
415,343	465,27
415,546	-280,21
415,75	-142,01
415,954	289,02
416,158	782,93
416,361	-317,46
416,565	-255,77
416,769	445,25
416,973	587,45
417,176	-161,63
417,38	39,86
417,584	587,85
417,788	637,92
417,991	-99,94
418,195	-322,67
418,398	728,86
418,602	565,02
418,806	-532,57
419,009	-151,62
419,213	383,96
419,417	857,44
419,62	-77,51
419,824	-341,9
420,027	525,76
420,231	475,69
420,434	-165,24
420,638	-266,59
420,841	425,22
421,045	509,74
421,248	-369,14
421,452	-331,08
421,655	558,21
421,859	473,29
422,062	-492,11
422,266	-333,88
422,469	611,09
422,673	134,8
422,876	-236,94
423,079	-422,81
423,283	382,35
423,486	442,04
423,689	126,38
423,893	-293,02
424,096	469,28
424,299	372,74
424,503	-54,68
424,706	-491,71
424,909	230,13
425,113	295,03
425,316	-496,52
425,519	-133,59
425,722	350,71
425,926	625,51
426,129	-486,51
426,332	133,99
426,535	448,05
426,739	627,11
426,942	60,69
427,145	-10,21
427,348	380,35
427,551	331,08
427,754	-233,74
427,957	-242,55
428,161	294,63
428,364	634,32
428,567	-65,49
428,77	-245,36
428,973	480,1
429,176	581,44
429,379	115,97
429,582	-153,62
429,785	362,33
429,988	537,78
430,191	-344,7
430,394	-359,92
430,597	369,94
430,8	259,78
431,003	6,21
431,206	-331,08
431,409	496,92
431,612	450,85
431,815	-294,63
432,018	-218,52
432,221	391,17
432,423	295,83
432,626	-55,48
432,829	-388,76
433,032	609,88
433,235	566,22
433,438	-177,66
433,64	55,48
433,843	440,04
434,046	163,64
434,249	-489,71
434,452	-477,69
434,654	706,42
434,857	368,73
435,06	-359,92
435,263	-311,05
435,465	329,48
435,668	642,33
435,871	-383,96
436,073	-303,84
436,276	354,71
436,479	593,06
436,681	-528,17
436,884	-265,79
437,087	303,84
437,289	420,41
437,492	138,8
437,694	-343,9
437,897	277,4
438,1	372,74
438,302	-297,03
438,505	-283,01
438,707	657,15
438,91	282,61
439,112	-529,37
439,315	-342,3
439,517	370,74
439,72	309,85
439,922	-294,63
440,125	-292,22
440,327	207,3
440,529	542,59
440,732	-438,44
440,934	86,33
441,137	306,24
441,339	475,29
441,541	-160,43
441,744	-121,58
441,946	381,55
442,148	334,28
442,351	-424,01
442,553	-302,24
442,755	461,27
442,958	357,92
443,16	-184,87
443,362	-365,93
443,565	368,33
443,767	506,13
443,969	-140,4
444,171	-114,77
444,373	302,64
444,576	585,85
444,778	-447,25
444,98	-381,55
445,182	505,33
445,384	293,02
445,586	-426,02
445,789	-364,73
445,991	502,93
446,193	541,38
446,395	-445,65
446,597	-341,5
446,799	642,33
447,001	468,48
447,203	-390,37
447,405	-210,1
447,607	262,58
447,809	198,89
448,011	-96,34
448,213	-199,69
448,415	603,47
448,617	465,27
448,819	-270,99
449,021	-304,24
449,223	304,64
449,425	685,19
449,627	-286,21
449,829	-226,53
450,031	441,24
450,233	537,38
450,435	-156,43
450,636	-416,8
450,838	362,73
451,04	381,15
451,242	-304,24
451,444	-325,07
451,646	360,32
451,847	422,41
452,049	-539,78
452,251	-111,16
452,453	583,85
452,654	681,59
452,856	-193,68
453,058	-122,78
453,26	491,31
453,461	655,55
453,663	43,06
453,865	-250,96
454,066	357,12
454,268	710,43
454,47	-16,22
454,671	-184,47
454,873	732,46
455,074	677,58
455,276	43,46
455,478	-94,74
455,679	408,39
455,881	506,93
456,082	-464,47
456,284	-47,47
456,485	435,63
456,687	335,89
456,888	425,22
457,09	-227,73
457,291	417,61
457,493	592,26
457,694	-473,69
457,896	-100,75
458,097	531,77
458,299	288,22
458,5	70,3
458,701	-347,9
458,903	800,16
459,104	703,22
459,306	-337,49
459,507	-134,8
459,708	430,42
459,91	353,11
460,111	410,39
460,312	-163,64
460,514	593,86
460,715	569,83
460,916	-71,9
461,117	-242,55
461,319	379,15
461,52	912,32
461,721	-301,44
461,922	-225,73
462,124	639,53
462,325	736,47
462,526	-164,84
462,727	-209,3
462,928	428,42
463,129	326,27
463,331	1
463,532	-337,49
463,733	860,65
463,934	339,09
464,135	-260,18
464,336	-353,11
464,537	450,45
464,738	525,76
464,939	58,28
465,14	-218,92
465,341	596,66
465,542	138
465,743	-163,64
465,944	-132,39
466,145	429,62
466,346	834,21
466,547	-414,8
466,748	-27,44
466,949	261,78
467,15	424,82
467,351	-373,54
467,552	73,11
467,753	408,79
467,953	952,38
468,154	19,43
468,355	-369,94
468,556	581,84
468,757	607,48
468,958	39,46
469,158	-349,91
469,359	413,6
469,56	140,4
469,761	-420,01
469,962	-148,42
470,162	301,84
470,363	413,2
470,564	-297,43
470,764	10,21
470,965	370,74
471,166	506,53
471,366	32,65
471,567	2068,4
471,768	563,82
471,968	543,79
472,169	-309,85
472,37	-362,33
472,57	338,29
472,771	201,69
472,971	150,42
473,172	-252,97
473,373	327,47
473,573	568,22
473,774	-298,63
473,974	-83,92
474,175	1102,6
474,375	488,11
474,576	-199,29
474,776	-246,96
474,977	540,18
475,177	559,01
475,377	25,84
475,578	97,94
475,778	631,52
475,979	460,47
476,179	306,24
476,379	-245,76
476,58	381,55
476,78	266,99
476,981	-194,88
477,181	-185,27
477,381	403,59
477,582	693,2
477,782	-289,82
477,982	-366,33
478,182	525,76
478,383	198,49
478,583	374,34
478,783	-343,9
478,983	673,58
479,184	864,25
479,384	-96,34
479,584	-5,41
479,784	442,84
479,984	375,14
480,184	-336,69
480,385	-286,62
480,585	638,73
480,785	326,27
480,985	-236,94
481,185	-156,43
481,385	528,97
481,585	326,27
481,785	-301,04
481,985	-31,05
482,185	607,88
482,385	498,52
482,585	-350,71
482,785	-138,8
482,985	461,27
483,185	550,6
483,385	-417,2
483,585	-104,35
483,785	381,55
483,985	389,16
484,185	-303,44
484,385	-419,61
484,585	506,53
484,785	323,47
484,985	-309,45
485,185	-205,3
485,384	767,31
485,584	239,75
485,784	-235,74
485,984	-202,49
486,184	516,15
486,383	83,52
486,583	282,61
486,783	-257,77
486,983	343,1
487,183	644,73
487,382	-81,92
487,582	-280,61
487,782	529,77
487,981	305,44
488,181	-257,77
488,381	-447,65
488,58	719,24
488,78	315,86
488,98	-291,42
489,179	-381,55
489,379	718,04
489,579	769,32
489,778	-75,91
489,978	-126,38
490,177	456,06
490,377	519,35
490,576	-90,73
490,776	-178,46
490,975	545,39
491,175	545,39
491,374	275,4
491,574	-312,25
491,773	247,36
491,973	846,23
492,172	-69,1
492,372	-55,88
492,571	1516
492,771	637,12
492,97	-44,66
493,169	684,79
493,369	800,16
493,568	604,28
493,767	-210,1
493,967	-80,72
494,166	681,59
494,365	408,39
494,565	-134,39
494,764	229,33
494,963	378,75
495,163	1705,07
495,362	-108,76
495,561	-249,36
495,76	427,62
495,959	522,56
496,159	299,03
496,358	-32,25
496,557	523,76
496,756	704,02
496,955	245,76
497,155	818,99
497,354	1965,05
497,553	2007,51
497,752	1773,17
497,951	1655,4
498,15	1702,27
498,349	1445,5
498,548	259,38
498,747	227,33
498,946	746,48
499,145	849,43
499,344	98,74
499,543	158,83
499,742	374,34
499,941	490,11
500,14	-326,67
500,339	32,25
500,538	552,6
500,737	738,87
500,936	-93,14
501,135	-174,45
501,334	365,13
501,533	480,9
501,732	-352,31
501,931	-384,36
502,129	574,23
502,328	887,09
502,527	-119,97
502,726	-231,74
502,925	573,83
503,123	698,81
503,322	103,95
503,521	-152,82
503,72	375,54
503,919	300,24
504,117	-217,32
504,316	87,53
504,515	603,88
504,713	517,75
504,912	-293,43
505,111	1,4
505,309	521,36
505,508	392,37
505,707	-161,23
505,905	-393,17
506,104	403,99
506,302	284,61
506,501	-285,41
506,7	377,15
506,898	491,71
507,097	752,09
507,295	125,98
507,494	-363,53
507,692	501,33
507,891	434,03
508,089	-317,46
508,288	342,3
508,486	494,12
508,685	528,97
508,883	46,27
509,082	-223,32
509,28	578,64
509,478	353,11
509,677	-12,22
509,875	-307,05
510,073	965,2
510,272	420,01
510,47	-216,51
510,669	-250,96
510,867	444,44
511,065	580,64
511,263	-128,79
511,462	-226,13
511,66	248,96
511,858	569,83
512,056	-352,31
512,255	1140,25
512,453	607,88
512,651	385,56
512,849	1,8
513,048	-36,25
513,246	724,85
513,444	431,63
513,642	-83,92
513,84	-135,2
514,038	579,44
514,236	650,34
514,435	226,13
514,633	793,35
514,831	991,64
515,029	1077,76
515,227	255,77
515,425	172,45
515,623	404,39
515,821	346,7
516,019	-82,72
516,217	-156,03
516,415	652,75
516,613	553,4
516,811	-4,21
517,009	-182,46
517,207	537,38
517,405	563,42
517,602	-100,75
517,8	-160,83
517,998	473,29
518,196	853,04
518,394	-102,35
518,592	-203,29
518,79	802,56
518,987	706,02
519,185	-266,19
519,383	-317,46
519,581	1122,23
519,779	514,15
519,976	-23,83
520,174	-186,07
520,372	441,24
520,57	185,67
520,767	-241,75
520,965	-251,36
521,163	463,67
521,36	560,61
521,558	-246,56
521,756	59,09
521,953	644,73
522,151	310,25
522,349	-191,28
522,546	-119,17
522,744	1059,34
522,941	389,97
523,139	10,21
523,336	56,68
523,534	627,11
523,731	736,07
523,929	-341,9
524,126	-320,66
524,324	297,03
524,521	675,98
524,719	79,11
524,916	92,73
525,114	179,66
525,311	395,57
525,509	97,94
525,706	-239,35
525,903	1469,93
526,101	439,64
526,298	7,81
526,496	-212,91
526,693	469,28
526,89	655,15
527,088	7,41
527,285	-262,58
527,482	651,14
527,679	642,73
527,877	-154,42
528,074	-21,43
528,271	371,54
528,468	688,4
528,666	-150,82
528,863	164,04
529,06	460,47
529,257	909,52
529,454	63,49
529,652	-225,73
529,849	1090,18
530,046	624,71
530,243	-99,14
530,44	-215,71
530,637	391,17
530,834	578,24
531,031	-47,87
531,228	-176,06
531,425	998,85
531,622	941,16
531,819	-112,36
532,016	16,62
532,213	658,35
532,41	620,3
532,607	344,7
532,804	111,16
533,001	698,01
533,198	456,86
533,395	-7,01
533,592	-119,57
533,789	372,34
533,986	675,98
534,183	-32,65
534,38	-5,41
534,576	740,07
534,773	689,2
534,97	-9,01
535,167	-95,94
535,364	759,3
535,561	707,23
535,757	23,83
535,954	-198,09
536,151	727,65
536,348	520,55
536,544	177,26
536,741	-223,32
536,938	641,93
537,134	876,67
537,331	-68,7
537,528	-106,35
537,724	573,03
537,921	563,82
538,118	-47,07
538,314	-329,88
538,511	734,87
538,707	797,76
538,904	245,36
539,101	33,45
539,297	761,7
539,494	617,09
539,69	-13,02
539,887	-154,02
540,083	610,69
540,28	804,17
540,476	366,73
540,673	-99,54
540,869	747,68
541,066	464,87
541,262	-37,45
541,458	113,97
541,655	823,79
541,851	750,89
542,048	57,88
542,244	-70,7
542,44	870,66
542,637	559,41
542,833	167,64
543,029	-115,17
543,226	621,5
543,422	962,4
543,618	-51,88
543,814	-19,43
544,011	581,04
544,207	562,62
544,403	241,35
544,599	10,62
544,796	610,28
544,992	702,42
545,188	216,91
545,384	-34,65
545,58	599,47
545,776	1157,88
545,972	102,75
546,169	262,58
546,365	818,99
546,561	847,43
546,757	184,87
546,953	197,29
547,149	582,64
547,345	764,11
547,541	180,86
547,737	25,04
547,933	731,66
548,129	725,25
548,325	59,49
548,521	162,44
548,717	614,69
548,913	991,24
549,109	198,49
549,305	111,96
549,501	908,72
549,697	946,77
549,892	49,87
550,088	51,07
550,284	899,9
550,48	1159,48
550,676	308,25
550,872	205,3
551,067	923,14
551,263	916,33
551,459	-19,03
551,655	394,37
551,85	970,01
552,046	573,03
552,242	69,1
552,438	276,2
552,633	788,94
552,829	896,3
553,025	299,83
553,22	228,53
553,416	1180,31
553,612	799,76
553,807	333,08
554,003	185,67
554,198	830,6
554,394	1456,71
554,59	113,56
554,785	66,7
554,981	696,01
555,176	855,84
555,372	333,08
555,567	143,21
555,763	919,13
555,958	782,93
556,154	286,62
556,349	535,78
556,545	1187,52
556,74	1035,3
556,936	521,36
557,131	571,83
557,326	1064,94
557,522	1385,41
557,717	330,28
557,912	572,23
558,108	1035,3
558,303	1264,03
558,498	969,2
558,694	893,9
558,889	1139,05
559,084	1157,08
559,28	552,6
559,475	521,36
559,67	1287,67
559,865	1337,34
560,061	581,84
560,256	486,91
560,451	1092,98
560,646	1288,47
560,841	511,74
561,037	302,24
561,232	1244,4
561,427	1409,04
561,622	343,9
561,817	510,14
562,012	1356,17
562,207	1542,44
562,402	593,46
562,597	629,51
562,792	1251,61
562,987	1558,86
563,182	684,79
563,377	708,03
563,572	1509,19
563,767	1253,62
563,962	997,65
564,157	887,49
564,352	1547,64
564,547	1616,94
564,742	1178,71
564,937	1242,4
565,132	1801,21
565,327	2017,12
565,522	1411,45
565,716	1189,92
565,911	1700,67
566,106	1685,84
566,301	1325,72
566,496	1263,23
566,691	2140,5
566,885	3022,98
567,08	3240,5
567,275	4879,67
567,47	8332,28
567,664	12058,88
567,859	14284,51
568,054	15481,04
568,248	16706,82
568,443	16934,75
568,638	12968,2
568,832	9604,92
569,027	7914,47
569,222	5898,35
569,416	3838,56
569,611	3070,25
569,805	2610,38
570	2668,87
570,195	1535,23
570,389	1389,01
570,584	2338,39
570,778	2247,06
570,973	1276,05
571,167	1644,98
571,362	1874,52
571,556	1821,24
571,751	1495,17
571,945	1425,87
572,139	1975,86
572,334	1906,56
572,528	1209,15
572,723	1388,61
572,917	2212,21
573,111	2029,94
573,306	1629,36
573,5	1516,8
573,694	2182,16
573,889	2471,78
574,083	1383,81
574,277	1628,96
574,472	1775,57
574,666	2317,96
574,86	1149,07
575,054	1493,97
575,249	2281,11
575,443	2332,78
575,637	1669,82
575,831	1573,68
576,025	2486,2
576,219	2292,72
576,414	1858,09
576,608	1763,96
576,802	2578,34
576,996	2402,08
577,19	1764,76
577,384	1939,81
577,578	2473,79
577,772	2676,08
577,966	2118,87
578,16	2156,13
578,354	2823,49
578,548	2949,68
578,742	2350,01
578,936	2546,69
579,13	3180,81
579,324	3260,93
579,518	3008,56
579,712	2773,42
579,906	3305,79
580,1	3488,46
580,294	3147,96
580,488	4082,12
580,682	5871,91
580,875	6201,99
581,069	5782,98
581,263	6420,31
581,457	7196,63
581,651	6670,67
581,845	6457,96
582,038	6239,65
582,232	6842,92
582,426	6954,28
582,62	7221,87
582,813	7272,34
583,007	8036,65
583,201	7918,48
583,394	7310
583,588	7295,58
583,782	7759,05
583,975	7800,71
584,169	7740,22
584,363	7998,19
584,556	8796,15
584,75	9233,18
584,943	8961,99
585,137	9146,26
585,33	10151,32
585,524	10005,9
585,718	10570,72
585,911	11488,05
586,105	13501,37
586,298	14737,16
586,491	16462,06
586,685	18837,51
586,878	23535,52
587,072	50919,61
587,265	61235,37
587,459	61058,71
587,652	62834,89
587,845	62572,51
588,039	63180,19
588,232	63222,25
588,426	63262,31
588,619	63236,27
588,812	63216,24
589,005	63272,32
589,199	63298,36
589,392	63248,29
589,585	63312,38
589,779	63284,34
589,972	63348,43
590,165	63284,34
590,358	63260,3
590,551	63254,29
590,745	63250,29
590,938	63284,34
591,131	63230,26
591,324	63236,27
591,517	63284,34
591,71	63276,33
591,904	63224,25
592,097	63302,36
592,29	63326,4
592,483	63214,24
592,676	63296,35
592,869	63290,35
593,062	63298,36
593,255	63288,34
593,448	63264,31
593,641	63342,42
593,834	63340,42
594,027	63198,21
594,22	63268,31
594,413	63268,31
594,606	63244,28
594,799	63288,34
594,992	63272,32
595,184	63284,34
595,377	63196,21
595,57	63258,3
595,763	63274,32
595,956	63250,29
596,149	63330,4
596,341	63344,42
596,534	63154,15
596,727	63270,32
596,92	63326,4
597,113	63292,35
597,305	63364,45
597,498	63256,3
597,691	63330,4
597,883	63292,35
598,076	63218,24
598,269	63256,3
598,462	63300,36
598,654	63344,42
598,847	63328,4
599,039	63266,31
599,232	63346,43
599,425	63240,27
599,617	63278,33
599,81	63268,31
600,002	63356,44
600,195	63298,36
600,387	63322,39
600,58	63272,32
600,772	63252,29
600,965	63200,22
601,157	63294,35
601,35	63282,33
601,542	63280,33
601,735	63260,3
601,927	63216,24
602,12	63200,22
602,312	63336,41
602,504	63224,25
602,697	63300,36
602,889	63268,31
603,082	63252,29
603,274	63272,32
603,466	63286,34
603,659	63306,37
603,851	63318,39
604,043	63236,27
604,235	63190,2
604,428	63324,4
604,62	63302,36
604,812	63276,33
605,004	63360,45
605,197	63264,31
605,389	63292,35
605,581	63278,33
605,773	63246,28
605,965	63296,35
606,157	63292,35
606,349	63242,28
606,542	63224,25
606,734	63262,31
606,926	63318,39
607,118	63338,42
607,31	63344,42
607,502	63310,38
607,694	63344,42
607,886	63264,31
608,078	63226,25
608,27	63268,31
608,462	63342,42
608,654	63308,37
608,846	63282,33
609,038	63200,22
609,23	63296,35
609,422	63258,3
609,614	63220,24
609,805	63304,37
609,997	63244,28
610,189	63212,23
610,381	63244,28
610,573	63268,31
610,765	63236,27
610,957	63248,29
611,148	63288,34
611,34	63272,32
611,532	63324,4
611,724	63308,37
611,915	63268,31
612,107	63252,29
612,299	63296,35
612,491	63260,3
612,682	63380,48
612,874	14790,44
613,066	16978,01
613,257	1246,41
613,449	525,76
613,64	635,52
613,832	1471,13
614,024	1619,35
614,215	1236,79
614,407	1324,92
614,598	2285,51
614,79	2814,28
614,981	3229,68
615,173	3209,25
615,364	4078,51
615,556	4140,6
615,747	3645,48
615,939	2579,14
616,13	2765,01
616,322	2372,04
616,513	1220,37
616,705	1098,59
616,896	1712,68
617,087	1262,43
617,279	799,76
617,47	361,12
617,661	901,51
617,853	818,59
618,044	438,84
618,235	481,7
618,427	1038,51
618,618	831
618,809	471,68
619	245,76
619,192	997,25
619,383	798,56
619,574	409,99
619,765	491,71
619,957	825,4
620,148	867,86
620,339	254,97
620,53	466,88
620,721	1074,16
620,912	913,52
621,103	496,52
621,294	236,14
621,485	748,89
621,677	1091,78
621,868	140,8
622,059	624,3
622,25	657,55
622,441	671,17
622,632	244,15
622,823	521,76
623,014	750,09
623,205	1225,58
623,395	89,13
623,586	162,84
623,777	593,06
623,968	526,16
624,159	111,96
624,35	237,34
624,541	711,63
624,732	668,37
624,923	150,82
625,113	234,54
625,304	538,58
625,495	790,55
625,686	389,97
625,877	288,62
626,067	518,15
626,258	1051,72
626,449	1,4
626,639	228,13
626,83	902,31
627,021	619,5
627,211	525,76
627,402	180,06
627,593	2855,94
627,783	606,28
627,974	498,52
628,165	264,18
628,355	1151,47
628,546	645,14
628,736	317,06
628,927	5,41
629,117	730,86
629,308	632,32
629,498	-78,71
629,689	251,36
629,879	611,89
630,07	623,1
630,26	-44,66
630,451	256,57
630,641	402,38
630,832	562,21
631,022	401,58
631,212	13,42
631,403	748,89
631,593	944,77
631,784	-22,23
631,974	174,45
632,164	569,83
632,355	504,53
632,545	322,67
632,735	125,18
632,925	812,58
633,116	818,99
633,306	430,82
633,496	-28,64
633,686	682,79
633,876	657,95
634,067	-186,47
634,257	619,9
634,447	496,92
634,637	409,59
634,827	-11,82
635,017	1187,92
635,208	546,19
635,398	354,31
635,588	-171,65
635,778	-12,62
635,968	323,47
636,158	461,27
636,348	139,6
636,538	40,66
636,728	929,15
636,918	309,05
637,108	333,88
637,298	-56,68
637,488	560,21
637,678	805,37
637,868	-41,06
638,057	58,69
638,247	541,79
638,437	777,73
638,627	17,43
638,817	81,12
639,007	371,54
639,197	583,45
639,386	-70,7
639,576	243,75
639,766	681,99
639,956	673,18
640,145	64,69
640,335	-183,67
640,525	500,93
640,715	510,54
640,904	572,63
641,094	284,21
641,284	482,9
641,473	628,31
641,663	-159,23
641,853	99,54
642,042	451,65
642,232	469,28
642,421	88,73
642,611	-51,88
642,801	397,98
642,99	808,57
643,18	-324,27
643,369	79,52
643,559	351,51
643,748	406,39
643,938	-128,39
644,127	213,31
644,317	866,66
644,506	352,31
644,695	-2,6
644,885	46,27
645,074	431,23
645,264	679,59
645,453	76,71
645,642	-46,27
645,832	540,98
646,021	596,26
646,21	-67,9
646,4	-218,52
646,589	504,53
646,778	429,62
646,967	162,03
647,157	-172,45
647,346	690,8
647,535	775,32
647,724	44,26
647,913	54,68
648,103	426,82
648,292	760,9
648,481	-238,15
648,67	-19,03
648,859	613,09
649,048	411,2
649,237	-46,27
649,427	-3,81
649,616	472,08
649,805	441,64
649,994	9,41
650,183	222,92
650,372	633,92
650,561	390,37
650,75	-228,13
650,939	-228,93
651,128	443,64
651,317	539,78
651,506	166,84
651,694	-158,43
651,883	357,12
652,072	841,42
652,261	-270,59
652,45	-266,59
652,639	602,67
652,828	369,14
653,016	-108,36
653,205	-34,25
653,394	311,85
653,583	781,33
653,772	-293,83
653,96	-204,1
654,149	465,27
654,338	321,87
654,527	26,64
654,715	-106,75
654,904	339,09
655,093	325,87
655,281	-6,61
655,47	-334,28
655,658	266,19
655,847	671,57
656,036	-184,87
656,224	-101,55
656,413	446,05
656,601	209,3
656,79	51,47
656,978	-198,49
657,167	573,03
657,355	361,12
657,544	-260,58
657,732	-160,43
657,921	416
658,109	557,01
658,298	-7,81
658,486	-130,79
658,675	257,37
658,863	517,75
659,051	-205,7
659,24	-98,34
659,428	555
659,616	654,75
659,805	-182,46
659,993	-316,26
660,181	506,93
660,37	287,82
660,558	-104,35
660,746	-311,45
660,934	207,3
661,123	432,83
661,311	-127,58
661,499	44,66
661,687	400,38
661,875	661,16
662,064	-41,46
662,252	-163,64
662,44	430,82
662,628	325,07
662,816	-446,85
663,004	-151,22
663,192	302,24
663,38	825,8
663,568	-163,24
663,756	-198,49
663,944	246,96
664,132	696,41
664,32	728,46
664,508	-218,92
664,696	455,66
664,884	277,8
665,072	-295,03
665,26	-367,13
665,448	280,21
665,636	133,99
665,824	-244,96
666,012	-355,92
666,199	233,34
666,387	563,02
666,575	-193,28
666,763	-48,27
666,951	510,94
667,139	409,19
667,326	-222,92
667,514	-355,11
667,702	620,3
667,889	669,57
668,077	-150,42
668,265	-95,54
668,453	355,52
668,64	403,18
668,828	-202,89
669,016	-260,18
669,203	466,88
669,391	253,77
669,578	-84,32
669,766	-403,18
669,954	567,82
670,141	256,57
670,329	-176,46
670,516	-458,87
670,704	200,49
670,891	531,37
671,079	-100,35
671,266	-309,05
671,454	488,91
671,641	396,37
671,828	-171,65
672,016	-206,5
672,203	432,43
672,391	392,37
672,578	-336,29
672,765	-183,27
672,953	361,92
673,14	316,26
673,327	-208,5
673,515	-253,77
673,702	654,75
673,889	765,71
674,077	-200,09
674,264	-136
674,451	500,12
674,638	403,59
674,825	89,53
675,013	-303,04
675,2	435,23
675,387	458,46
675,574	-297,83
675,761	-79,52
675,948	315,86
676,136	258,57
676,323	-134,8
676,51	-321,47
676,697	438,03
676,884	564,62
677,071	-444,04
677,258	-332,68
677,445	463,27
677,632	240,15
677,819	-297,83
678,006	-283,41
678,193	532,17
678,38	333,48
678,567	-168,84
678,754	-379,95
678,94	379,55
679,127	591,46
679,314	-232,94
679,501	-316,66
679,688	252,17
679,875	161,63
680,062	-204,9
680,248	-248,96
680,435	373,14
680,622	523,76
680,809	-120,78
680,995	-153,22
681,182	641,93
681,369	345,9
681,556	-432,03
681,742	-315,06
681,929	537,78
682,116	602,67
682,302	-52,68
682,489	-327,88
682,675	448,85
682,862	764,51
683,049	-482,9
683,235	-182,46
683,422	392,77
683,608	816,58
683,795	-488,91
683,981	-316,66
684,168	752,49
684,354	286,62
684,541	675,58
684,727	-61,89
684,914	318,66
685,1	340,29
685,287	-197,69
685,473	-236,94
685,659	488,91
685,846	351,11
686,032	-240,95
686,218	386,76
686,405	867,06
686,591	593,06
686,777	-81,12
686,964	-258,98
687,15	268,99
687,336	396,78
687,522	-441,24
687,709	-422,81
687,895	352,31
688,081	649,14
688,267	-339,49
688,454	-297,43
688,64	372,74
688,826	271,39
689,012	-204,1
689,198	-148,82
689,384	390,37
689,57	959,59
689,756	-408,79
689,942	150,02
690,128	567,82
690,314	985,63
690,501	-167,24
690,687	39,86
690,873	695,21
691,058	679,99
691,244	-482,1
691,43	-109,96
691,616	300,64
691,802	549
691,988	-409,19
692,174	-281,41
692,36	281,81
692,546	359,12
692,732	-11,02
692,917	256,97
693,103	444,84
693,289	787,34
693,475	-143,21
693,661	-192,88
693,846	389,16
694,032	482,9
694,218	-315,46
694,404	-57,48
694,589	600,27
694,775	394,77
694,961	480,1
695,146	1524,01
695,332	3431,57
695,518	5045,51
695,703	5330,73
695,889	6508,84
696,074	7915,67
696,26	7200,64
696,446	4713,83
696,631	4270,39
696,817	4119,77
697,002	3339,04
697,188	2235,04
697,373	1227,18
697,559	2190,17
697,744	1443,89
697,93	223,72
698,115	97,14
698,3	623,9
698,486	551
698,671	-303,04
698,857	-328,68
699,042	460,07
699,227	343,5
699,413	-255,77
699,598	-363,93
699,783	843,42
699,969	789,74
700,154	55,08
700,339	-341,5
700,524	593,06
700,71	696,01
700,895	-555,41
701,08	-147,21
701,265	639,13
701,45	510,94
701,636	-124,78
701,821	-87,53
702,006	342,7
702,191	493,32
702,376	-140
702,561	-229,73
702,746	479,29
702,931	780,13
703,116	-156,83
703,301	-343,1
703,486	613,09
703,671	210,1
703,856	-81,12
704,041	-193,28
704,226	554,6
704,411	506,93
704,596	5238,99
704,781	-268,59
704,966	533,77
705,151	760,1
705,336	524,16
705,521	1924,99
705,706	3102,3
705,89	3759,65
706,075	3912,27
706,26	4060,89
706,445	4046,87
706,63	3100,29
706,814	2126,88
706,999	1586,5
707,184	2016,32
707,368	1642,18
707,553	617,5
707,738	246,16
707,923	787,34
708,107	563,02
708,292	-132,39
708,476	232,54
708,661	679,99
708,846	494,12
709,03	-157,23
709,215	-99,14
709,399	763,71
709,584	750,09
709,768	-399,18
709,953	134,39
710,137	206,9
710,322	585,05
710,506	-201,69
710,691	-253,37
710,875	529,77
711,06	283,41
711,244	-245,76
711,429	-347,1
711,613	455,66
711,797	608,28
711,982	-55,08
712,166	-327,07
712,35	348,3
712,535	649,14
712,719	-258,57
712,903	-507,74
713,088	555,81
713,272	376,35
713,456	-226,93
713,64	396,37
713,824	911,92
714,009	992,84
714,193	358,32
714,377	318,26
714,561	803,36
714,745	878,27
714,929	-41,86
715,113	66,7
715,298	811,38
715,482	472,48
715,666	-108,36
715,85	-333,48
716,034	776,13
716,218	386,36
716,402	-252,97
716,586	-338,69
716,77	690,8
716,954	626,31
717,138	-105,15
717,322	-149,62
717,506	623,5
717,689	585,05
717,873	-305,04
718,057	-310,25
718,241	749,69
718,425	309,05
718,609	-412
718,793	-188,47
718,976	429,62
719,16	409,99
719,344	-391,17
719,528	-241,35
719,711	450,85
719,895	388,76
720,079	-313,85
720,263	-190,48
720,446	569,83
720,63	443,24
720,814	-250,16
720,997	258,17
721,181	234,54
721,364	557,01
721,548	-217,32
721,732	-370,34
721,915	293,83
722,099	409,19
722,282	-385,96
722,466	-248,16
722,649	518,55
722,833	466,08
723,016	-337,49
723,2	-268,19
723,383	575,83
723,567	375,54
723,75	-113,56
723,934	-152,42
724,117	279,81
724,3	532,97
724,484	-324,67
724,667	-222,12
724,85	528,17
725,034	170,05
725,217	-258,98
725,4	-315,86
725,584	240,15
725,767	374,34
725,95	47,47
726,133	796,15
726,317	1354,56
726,5	1745,13
726,683	1114,22
726,866	1227,58
727,049	1782,38
727,232	1388,21
727,416	643,13
727,599	464,47
727,782	1012,07
727,965	759,3
728,148	30,24
728,331	-170,45
728,514	434,83
728,697	577,84
728,88	-166,44
729,063	-388,36
729,246	679,18
729,429	596,26
729,612	-200,89
729,795	-57,48
729,978	389,16
730,161	409,59
730,344	-99,14
730,526	-331,88
730,709	293,02
730,892	323,07
731,075	-88,73
731,258	-340,29
731,441	479,7
731,623	232,14
731,806	-121,98
731,989	-293,02
732,172	765,71
732,354	512,14
732,537	126,38
732,72	-283,81
732,903	345,5
733,085	450,05
733,268	-384,36
733,451	-133,19
733,633	424,42
733,816	438,03
733,998	-34,25
734,181	-173,65
734,364	794,15
734,546	259,38
734,729	-325,47
734,911	35,45
735,094	800,56
735,276	470,48
735,459	-254,97
735,641	18,23
735,824	490,91
736,006	724,05
736,188	-43,06
736,371	-91,13
736,553	345,5
736,736	589,86
736,918	939,56
737,1	2122,08
737,283	4328,47
737,465	5145,26
737,647	5409,24
737,83	6655,85
738,012	7475,04
738,194	5846,68
738,376	4691,4
738,559	4040,06
738,741	3972,36
738,923	3127,53
739,105	2137,7
739,287	1423,46
739,469	1649,39
739,652	1527,61
739,834	381,55
740,016	56,28
740,198	580,24
740,38	557,41
740,562	-266,19
740,744	50,27
740,926	504,53
741,108	548,19
741,29	-313,45
741,472	56,28
741,654	870,26
741,836	397,58
742,018	-210,1
742,2	37,45
742,382	479,29
742,564	531,37
742,746	-232,94
742,928	-154,82
743,109	199,29
743,291	344,3
743,473	-327,07
743,655	77,91
743,837	398,78
744,019	354,71
744,2	-35,05
744,382	166,44
744,564	632,32
744,746	164,04
744,927	-160,83
745,109	-294,63
745,291	603,88
745,472	373,94
745,654	20,63
745,836	-65,9
746,017	544,19
746,199	481,3
746,38	-301,44
746,562	-166,44
746,744	341,9
746,925	556,21
747,107	-63,49
747,288	-21,83
747,47	492,51
747,651	516,15
747,833	-266,59
748,014	44,26
748,195	356,32
748,377	573,03
748,558	-319,46
748,74	-115,17
748,921	1227,18
749,102	1956,64
749,284	2725,75
749,465	3681,14
749,646	5112,41
749,828	5862,7
750,009	6149,51
750,19	5884,33
750,372	7056,03
750,553	7775,87
750,734	6947,07
750,915	6917,83
751,096	7783,48
751,278	6008,51
751,459	4545,59
751,64	3516,9
751,821	3842,17
752,002	2851,53
752,183	1873,32
752,364	1006,46
752,546	1103,8
752,727	1288,47
752,908	168,44
753,089	117,57
753,27	560,61
753,451	560,61
753,632	45,47
753,813	-324,27
753,994	525,36
754,175	471,68
754,356	115,17
754,536	-238,15
754,717	286,62
754,898	338,69
755,079	-268,99
755,26	-260,58
755,441	438,03
755,622	331,48
755,802	-383,16
755,983	-333,08
756,164	546,99
756,345	455,66
756,526	-261,78
756,706	-287,02
756,887	333,48
757,068	450,05
757,248	443,24
757,429	193,28
757,61	540,98
757,79	277,4
757,971	-142,41
758,152	-325,47
758,332	446,85
758,513	380,75
758,693	-227,33
758,874	-315,06
759,055	417,61
759,235	440,44
759,416	-146,01
759,596	-24,64
759,777	220,52
759,957	436,43
760,137	-228,13
760,318	45,07
760,498	216,51
760,679	225,33
760,859	-212,91
761,039	-73,11
761,22	553
761,4	534,17
761,581	95,94
761,761	561,41
761,941	2051,17
762,121	6487,2
762,302	12979,42
762,482	19180,8
762,662	25423,45
762,842	30547,68
763,023	35308,98
763,203	33682,63
763,383	26986,92
763,563	23541,53
763,743	19196,43
763,923	14862,54
764,104	11649,49
764,284	7826,75
764,464	5241
764,644	3215,26
764,824	2768,21
765,004	2371,24
765,184	2559,11
765,364	3780,08
765,544	5416,85
765,724	6168,74
765,904	6737,57
766,084	6991,13
766,264	6788,04
766,444	5439,28
766,624	4362,52
766,804	3849,78
766,983	3556,16
767,163	2405,69
767,343	1670,22
767,523	807,77
767,703	1329,73
767,883	623,1
768,062	374,34
768,242	95,14
768,422	1008,06
768,602	1586,5
768,781	1787,19
768,961	2593,96
769,141	3683,94
769,32	4264,78
769,5	4052,07
769,68	3741,22
769,859	3641,48
770,039	3680,34
770,219	1935,41
770,398	1731,51
770,578	1616,14
770,757	1650,19
770,937	1438,69
771,116	3029,39
771,296	6252,46
771,475	8518,95
771,655	9616,14
771,834	11201,24
772,014	13509,78
772,193	12179,46
772,373	9159,08
772,552	8151,62
772,731	7025,18
772,911	5726,5
773,09	3440,79
773,269	1980,67
773,449	1612,14
773,628	992,04
773,807	228,93
773,987	614,69
774,166	711,63
774,345	525,76
774,524	18,63
774,704	-245,76
774,883	726,85
775,062	454,46
775,241	-166,44
775,42	-119,57
775,6	286,21
775,779	415,6
775,958	-236,14
776,137	-122,38
776,316	422,01
776,495	474,49
776,674	98,34
776,853	-193,28
777,032	544,99
777,211	178,86
777,39	26,64
777,569	-213,71
777,748	367,13
777,927	358,32
778,106	-52,28
778,285	-234,94
778,464	266,99
778,643	467,28
778,822	-66,7
779	-298,23
779,179	545,79
779,358	524,56
779,537	-108,36
779,716	36,25
779,894	339,89
780,073	655,15
780,252	13,82
780,431	-106,35
780,609	536,98
780,788	422,01
780,967	-320,26
781,145	-100,35
781,324	607,48
781,503	313,05
781,681	-470,88
781,86	-153,62
782,039	410,39
782,217	338,69
782,396	-290,22
782,574	-432,43
782,753	512,54
782,931	472,48
783,11	-15,42
783,288	-177,26
783,467	368,33
783,645	289,82
783,824	-194,48
784,002	-358,72
784,18	306,24
784,359	472,48
784,537	-308,25
784,716	44,66
784,894	171,25
785,072	265,79
785,251	169,65
785,429	-122,38
785,607	427,62
785,785	336,29
785,964	-172,85
786,142	-80,72
786,32	383,96
786,498	214,91
786,677	-243,35
786,855	-231,74
787,033	328,68
787,211	603,07
787,389	-266,99
787,567	-27,84
787,745	291,42
787,923	337,89
788,102	-51,07
788,28	-312,25
788,458	369,94
788,636	323,47
788,814	-228,13
788,992	-101,55
789,17	168,04
789,348	226,53
789,526	-399,98
789,703	600,67
789,881	510,54
790,059	388,36
790,237	-372,34
790,415	-178,06
790,593	480,9
790,771	290,62
790,949	-51,88
791,126	-172,45
791,304	389,56
791,482	234,94
791,66	-20,23
791,837	-124,38
792,015	138
792,193	290,22
792,371	-345,5
792,548	-298,23
792,726	310,25
792,904	508,14
793,081	-37,05
793,259	296,63
793,436	1428,67
793,614	2458,16
793,792	3677,53
793,969	4281,21
794,147	6133,09
794,324	6713,93
794,502	6550,5
794,679	5027,09
794,857	4392,17
795,034	3404,33
795,212	2054,78
795,389	1105,8
795,567	1365,78
795,744	1339,34
795,921	766,51
796,099	109,96
796,276	933,95
796,453	520,15
796,631	-291,42
796,808	-76,31
796,985	290,22
797,163	446,45
797,34	69,5
797,517	-113,97
797,694	347,9
797,872	563,02
798,049	-184,87
798,226	116,37
798,403	394,77
798,58	268,59
798,757	463,27
798,935	-9,81
799,112	767,71
799,289	1020,08
799,466	1122,63
799,643	1998,7
799,82	3428,77
799,997	4078,51
800,174	4912,52
800,351	5873,51
800,528	6880,57
800,705	7368,08
800,882	7440,19
801,059	7647,29
801,236	7210,65
801,413	5069,95
801,589	3399,93
801,766	2509,84
801,943	2375,64
802,12	1531,62
802,297	1028,89
802,474	557,81
802,651	1211,56
802,827	885,88
803,004	-74,31
803,181	98,34
803,358	759,3
803,534	564,62
803,711	106,75
803,888	149,22
804,064	875,47
804,241	541,79
804,418	26,24
804,594	-262,58
804,771	299,03
804,947	268,59
805,124	-78,31
805,301	-253,37
805,477	447,25
805,654	605,48
805,83	24,24
806,007	75,11
806,183	456,46
806,36	375,94
806,536	37,85
806,712	-48,27
806,889	339,49
807,065	599,87
807,242	113,56
807,418	83,52
807,594	673,58
807,771	427,22
807,947	670,37
808,123	-69,5
808,3	648,74
808,476	545,39
808,652	-81,52
808,829	252,97
809,005	2082,42
809,181	3579,39
809,357	4727,05
809,533	6185,97
809,71	7588
809,886	8504,53
810,062	10009,11
810,238	11955,13
810,414	17024,48
810,59	20199,88
810,766	21814,62
810,942	23120,12
811,118	26384,45
811,294	24239,74
811,47	15682,13
811,646	12108,15
811,822	9468,33
811,998	7203,84
812,174	4894,5
812,35	3461,62
812,526	3337,84
812,702	2452,96
812,878	2154,92
813,054	1006,86
813,23	1600,52
813,405	1293,68
813,581	687,6
813,757	339,89
813,933	664,76
814,109	1233,99
814,284	36,65
814,46	75,11
814,636	817,38
814,812	683,19
814,987	85,12
815,163	221,32
815,339	935,16
815,514	360,72
815,69	123,58
815,866	-19,43
816,041	675,58
816,217	667,97
816,392	323,87
816,568	209,7
816,743	1582,09
816,919	3377,1
817,094	7962,54
817,27	13327,92
817,445	17730,3
817,621	20516,34
817,796	22696,7
817,972	24681,98
818,147	25985,07
818,322	28328,06
818,498	33717,88
818,673	36527,55
818,849	41691,04
819,024	43708,76
819,199	40866,24
819,375	28890,08
819,55	20410,59
819,725	16715,63
819,9	11649,89
820,076	9302,08
820,251	7721,79
820,426	5657,6
820,601	4113,76
820,776	2981,72
820,952	3095,89
821,127	2623,2
821,302	1280,46
821,477	1488,76
821,652	1249,61
821,827	1843,67
822,002	330,28
822,177	50,67
822,352	814,18
822,527	379,15
822,702	-55,08
822,877	-156,43
823,052	903,51
823,227	405,59
823,402	-33,45
823,577	-82,72
823,752	427,22
823,927	444,44
824,102	-228,93
824,277	-7,81
824,451	304,64
824,626	338,29
824,801	-62,69
824,976	151,62
825,151	1374,19
825,325	2495,82
825,5	2749,39
825,675	3021,78
825,85	4780,33
826,024	4637,32
826,199	3884,23
826,374	2767,41
826,548	2414,1
826,723	2100,44
826,897	1285,66
827,072	996,44
827,247	1107,81
827,421	878,67
827,596	341,09
827,77	62,29
827,945	480,9
828,119	978,42
828,294	-43,46
828,468	39,46
828,643	764,11
828,817	395,17
828,992	1572,08
829,166	-303,44
829,34	387,56
829,515	385,16
829,689	-218,92
829,864	-155,23
830,038	331,08
830,212	194,48
830,386	-48,27
830,561	-360,72
830,735	472,48
830,909	347,5
831,084	-406,79
831,258	152,82
831,432	524,96
831,606	303,04
831,78	-25,44
831,954	-400,78
832,129	475,29
832,303	325,87
832,477	-112,76
832,651	-148,42
832,825	816,18
832,999	228,13
833,173	-171,65
833,347	-88,33
833,521	403,99
833,695	224,53
833,869	-131,59
834,043	-334,28
834,217	226,93
834,391	136
834,565	335,49
834,739	-261,38
834,913	168,84
835,086	295,43
835,26	-27,04
835,434	-228,13
835,608	367,13
835,782	428,02
835,956	-140,8
836,129	-27,04
836,303	472,89
836,477	128,79
836,651	-251,76
836,824	-452,06
836,998	448,45
837,172	438,84
837,345	-293,83
837,519	-92,33
837,693	516,55
837,866	273,4
838,04	-232,94
838,213	155,23
838,387	276,6
838,56	388,36
838,734	-373,54
838,907	125,98
839,081	612,69
839,254	601,87
839,428	862,65
839,601	1596,91
839,775	3145,16
839,948	3629,46
840,122	3341,84
840,295	4161,03
840,468	4862,85
840,642	4207,1
840,815	2536,28
840,988	2504,63
841,162	3807,32
841,335	4570,83
841,508	5067,95
841,682	5621,95
841,855	7142,95
842,028	6871,36
842,201	6155,92
842,374	4748,68
842,548	3885,03
842,721	3289,77
842,894	1933
843,067	1839,27
843,24	2021,53
843,413	1524,01
843,586	759,3
843,759	579,44
843,932	928,35
844,105	729,26
844,278	277,8
844,451	664,36
844,624	500,93
844,797	367,53
844,97	-332,68
845,143	-39,46
845,316	486,1
845,489	636,72
845,662	-210,51
845,835	-311,85
846,008	111,96
846,18	189,67
846,353	-390,37
846,526	129,19
846,699	404,79
846,872	232,54
847,044	-441,24
847,217	-587,05
847,39	313,85
847,563	277,4
847,735	-192,48
847,908	-369,14
848,081	553,8
848,253	202,89
848,426	-535,78
848,598	-248,16
848,771	546,19
848,944	188,47
849,116	-428,42
849,289	-325,87
849,461	104,35
849,634	618,3
849,806	-367,13
849,979	-601,07
850,151	188,07
850,324	211,31
850,496	-335,49
850,668	-169,25
850,841	1007,26
851,013	834,21
851,186	513,74
851,358	849,43
851,53	1611,74
851,703	1511,59
851,875	1086,17
852,047	842,62
852,219	3332,63
852,392	1134,24
852,564	392,37
852,736	-45,87
852,908	757,3
853,081	709,23
853,253	-198,49
853,425	-291,82
853,597	584,65
853,769	469,28
853,941	-477,69
854,113	-328,68
854,285	565,02
854,457	384,36
854,63	-350,31
854,802	-321,07
854,974	295,03
855,146	527,77
855,318	-448,85
855,489	-123,18
855,661	158,03
855,833	221,72
856,005	-76,71
856,177	-185,67
856,349	190,08
856,521	287,42
856,693	-407,59
856,865	-378,35
857,036	51,88
857,208	276,2
857,38	-361,12
857,552	-159,23
857,723	61,89
857,895	276,6
858,067	-573,83
858,239	-534,98
858,41	409,99
858,582	440,84
858,754	-524,16
858,925	-375,54
859,097	260,18
859,268	36,65
859,44	-418,41
859,612	-457,66
859,783	466,48
859,955	313,85
860,126	-509,74
860,298	-434,83
860,469	365,53
860,641	220,12
860,812	-450,45
860,983	-591,06
861,155	254,17
861,326	476,49
861,498	-352,31
861,669	-513,74
861,84	148,42
862,012	432,03
862,183	-462,47
862,354	-577,84
862,526	406,39
862,697	138,8
862,868	-403,59
863,039	-377,15
863,211	288,62
863,382	338,29
863,553	-433,63
863,724	-324,27
863,895	192,48
864,066	146,81
864,238	-334,69
864,409	-479,7
864,58	386,36
864,751	665,16
864,922	-344,3
865,093	-319,06
865,264	258,57
865,435	355,92
865,606	-438,03
865,777	-479,7
865,948	303,84
866,119	307,45
866,29	-2,2
866,461	-334,28
866,632	766,91
866,802	638,73
866,973	-72,3
867,144	112,76
867,315	699,21
867,486	467,68
867,657	-432,83
867,827	-317,46
867,998	118,77
868,169	292,22
868,34	-274,6
868,51	272,19
868,681	379,55
868,852	544,99
869,022	-252,97
869,193	-167,24
869,364	323,47
869,534	577,44
869,705	-255,37
869,875	-389,56
870,046	124,38
870,217	181,26
870,387	-375,54
870,558	-189,67
870,728	233,74
870,899	182,06
871,069	-293,02
871,239	-525,36
871,41	60,29
871,58	210,1
871,751	-626,31
871,921	-231,74
872,091	362,33
872,262	769,32
872,432	-650,34
872,602	-480,5
872,773	74,71
872,943	133,19
873,113	-482,5
873,284	-196,89
873,454	704,02
873,624	560,21
873,794	-366,73
873,964	-156,43
874,135	191,68
874,305	495,72
874,475	-345,1
874,645	-449,25
874,815	295,43
874,985	489,71
875,155	-616,29
875,325	-534,57
875,495	452,06
875,665	947,57
875,835	-200,89
876,005	-258,17
876,175	449,25
876,345	63,89
876,515	-505,33
876,685	-494,92
876,855	321,87
877,025	465,27
877,195	-692
877,365	-496,92
877,534	405,99
877,704	419,21
877,874	-597,47
878,044	-66,3
878,214	383,16
878,383	117,17
878,553	-506,13
878,723	-232,54
878,892	313,85
879,062	288,22
879,232	-387,96
879,401	-176,86
879,571	489,71
879,741	604,28
879,91	-89,53
880,08	-148,01
880,249	403,99
880,419	401,98
880,589	-409,59
880,758	-257,77
880,928	288,62
881,097	445,65
881,267	-667,57
881,436	-287,02
881,605	254,57
881,775	279
881,944	-683,99
882,114	-110,36
882,283	136,4
882,452	484,1
882,622	-286,62
882,791	-648,74
882,96	530,57
883,13	577,44
883,299	-509,74
883,468	-377,55
883,637	296,23
883,807	627,51
883,976	-503,73
884,145	-569,43
884,314	130,39
884,483	309,85
884,652	-409,59
884,822	-604,68
884,991	324,67
885,16	273,4
885,329	-359,12
885,498	-587,05
885,667	265,79
885,836	203,7
886,005	-151,62
886,174	-15,02
886,343	177,26
886,512	291,42
886,681	-380,75
886,85	-341,5
887,019	253,77
887,187	471,28
887,356	-281,81
887,525	371,54
887,694	283,81
887,863	320,66
888,032	-522,96
888,2	-276,6
888,369	390,37
888,538	522,96
888,707	-401,18
888,875	-391,17
889,044	375,94
889,213	222,52
889,381	-422,81
889,55	-452,46
889,719	370,34
889,887	441,64
890,056	-398,38
890,224	-393,97
890,393	654,35
890,562	170,85
890,73	-264,98
890,899	-442,04
891,067	431,63
891,236	490,11
891,404	-369,54
891,573	-437,63
891,741	441,64
891,909	317,46
892,078	-496,12
892,246	-151,62
892,415	707,23
892,583	609,08
892,751	-662,36
892,92	-350,71
893,088	321,47
893,256	323,07
893,424	-220,52
893,593	101,95
893,761	224,53
893,929	686,8
894,097	-581,04
894,265	-391,97
894,434	387,96
894,602	451,65
894,77	-264,98
894,938	-446,45
895,106	451,65
895,274	190,88
895,442	-478,09
895,61	-587,45
895,778	363,93
895,946	581,44
896,114	-300,64
896,282	-397,98
896,45	341,09
896,618	389,16
896,786	-277,8
896,954	-575,43
897,122	748,49
897,29	900,31
897,458	-472,89
897,625	-569,43
897,793	249,76
897,961	369,94
898,129	-258,57
898,297	-610,69
898,464	247,36
898,632	511,34
898,8	-523,76
898,968	-642,33
899,135	290,62
899,303	289,82
899,471	-264,58
899,638	-261,38
899,806	104,35
899,973	272,19
900,141	-664,36
900,309	-484,1
900,476	316,26
900,644	163,64
900,811	-140,4
900,979	-400,38
901,146	136
901,314	293,83
901,481	-426,42
901,649	-426,82
901,816	238,55
901,983	331,88
902,151	-366,73
