Data from Lichquelle_USB4F055801__0__000.txt Node

Date: Thu Feb 19 14:12:39 CET 2026
User: Versuch 234
Spectrometer: USB4F05580
Trigger mode: 4
Integration Time (sec): 4,500000E-2
Scans to average: 10
Electric dark correction enabled: true
Nonlinearity correction enabled: false
Boxcar width: 0
XAxis mode: Wavelengths
Number of Pixels in Spectrum: 3648
>>>>>Begin Spectral Data<<<<<
197,409	-66,4
197,623	-66,4
197,837	-66,4
198,051	-77,61
198,265	-63,39
198,479	25,74
198,693	17,33
198,907	1,9
199,122	8,91
199,336	18,73
199,55	2,9
199,763	-23,93
199,977	-2,3
200,191	-17,12
200,405	-14,52
200,619	-46,97
200,833	29,34
201,047	-20,53
201,261	58,38
201,475	54,78
201,689	74,61
201,903	46,97
202,117	87,83
202,331	63,39
202,545	104,65
202,758	46,77
202,972	60,79
203,186	101,45
203,4	78,01
203,614	96,64
203,828	76,01
204,041	70
204,255	72
204,469	74,41
204,683	73,41
204,897	69
205,11	58,79
205,324	69,2
205,538	81,42
205,752	73,41
205,965	44,36
206,179	50,57
206,393	61,19
206,606	81,22
206,82	55,78
207,034	45,17
207,248	79,21
207,461	46,57
207,675	66,6
207,889	79,01
208,102	67,4
208,316	70
208,529	47,97
208,743	69
208,957	72
209,17	68,2
209,384	87,03
209,597	46,57
209,811	70,4
210,025	71
210,238	110,86
210,452	83,22
210,665	65,8
210,879	72,61
211,092	60,79
211,306	85,62
211,519	71,4
211,733	98,44
211,946	61,39
212,16	50,37
212,373	72,81
212,587	52,98
212,8	64,99
213,014	57,18
213,227	83,42
213,44	65,39
213,654	52,98
213,867	75,81
214,081	58,58
214,294	66,6
214,507	68
214,721	62,99
214,934	54,98
215,148	71,6
215,361	45,37
215,574	80,02
215,788	92,83
216,001	47,77
216,214	77,01
216,428	52,78
216,641	70,4
216,854	67,8
217,067	63,79
217,281	80,22
217,494	81,62
217,707	57,18
217,92	74,81
218,134	45,77
218,347	73,01
218,56	75,41
218,773	99,04
218,986	63,59
219,2	68,2
219,413	64,39
219,626	72,2
219,839	59,39
220,052	78,41
220,265	69,8
220,479	63,79
220,692	67,8
220,905	57,98
221,118	89,03
221,331	79,01
221,544	75,41
221,757	83,02
221,97	60,79
222,183	108,86
222,396	82,22
222,609	96,44
222,822	71,6
223,035	69,8
223,249	66
223,462	97,44
223,675	59,99
223,887	94,84
224,1	61,39
224,313	70,2
224,526	64,79
224,739	72,4
224,952	62,19
225,165	91,23
225,378	83,62
225,591	53,58
225,804	96,84
226,017	76,81
226,23	87,83
226,443	57,78
226,656	88,63
226,868	77,41
227,081	81,22
227,294	74,41
227,507	63,59
227,72	80,22
227,933	66,2
228,145	89,43
228,358	97,24
228,571	63,19
228,784	104,25
228,997	71,6
229,209	47,57
229,422	100,85
229,635	51,98
229,848	82,82
230,06	78,21
230,273	88,63
230,486	90,03
230,698	97,24
230,911	65,39
231,124	93,64
231,336	80,82
231,549	82,22
231,762	57,98
231,974	65,19
232,187	73,01
232,4	70,4
232,612	76,01
232,825	74,21
233,038	89,43
233,25	98,24
233,463	83,62
233,675	69,2
233,888	73,41
234,1	79,42
234,313	78,41
234,526	69,6
234,738	94,04
234,951	72,4
235,163	86,22
235,376	81,82
235,588	104,85
235,801	106,25
236,013	101,65
236,226	53,98
236,438	74,01
236,65	81,42
236,863	94,24
237,075	67,4
237,288	123,88
237,5	98,44
237,713	89,23
237,925	102,85
238,137	70,8
238,35	79,21
238,562	82,22
238,774	80,82
238,987	52,58
239,199	73,81
239,411	76,01
239,624	85,02
239,836	114,67
240,048	87,43
240,261	74,21
240,473	119,27
240,685	87,83
240,897	59,39
241,11	65,39
241,322	113,46
241,534	71,8
241,746	87,03
241,959	59,99
242,171	106,25
242,383	75,01
242,595	87,43
242,807	93,64
243,02	94,04
243,232	75,21
243,444	108,06
243,656	66,6
243,868	91,83
244,08	97,24
244,293	81,62
244,505	77,41
244,717	79,82
244,929	71
245,141	100,05
245,353	93,64
245,565	77,01
245,777	85,02
245,989	100,05
246,201	100,05
246,413	99,04
246,625	97,24
246,837	98,04
247,049	83,62
247,261	64,19
247,473	87,83
247,685	88,63
247,897	70,4
248,109	101,25
248,321	97,04
248,533	84,62
248,745	88,03
248,957	98,84
249,169	102,05
249,381	86,02
249,593	118,27
249,804	116,07
250,016	83,22
250,228	80,22
250,44	82,82
250,652	77,61
250,864	74,81
251,075	100,65
251,287	97,24
251,499	82,22
251,711	65,8
251,923	117,27
252,134	95,24
252,346	95,24
252,558	104,65
252,77	104,45
252,982	102,65
253,193	114,67
253,405	92,43
253,617	89,03
253,828	102,85
254,04	75,41
254,252	92,83
254,463	93,44
254,675	70,2
254,887	118,27
255,098	96,84
255,31	94,04
255,522	75,01
255,733	111,26
255,945	84,42
256,157	121,68
256,368	100,45
256,58	105,45
256,791	72,4
257,003	90,23
257,214	89,63
257,426	101,05
257,637	96,04
257,849	115,87
258,061	96,64
258,272	91,43
258,484	102,25
258,695	106,05
258,907	79,42
259,118	99,04
259,329	127,48
259,541	104,85
259,752	63,79
259,964	92,03
260,175	111,46
260,387	97,64
260,598	87,83
260,809	89,03
261,021	111,06
261,232	76,61
261,444	108,26
261,655	80,42
261,866	140,3
262,078	110,66
262,289	100,25
262,5	88,43
262,712	92,43
262,923	131,49
263,134	105,45
263,345	126,88
263,557	87,03
263,768	87,43
263,979	105,65
264,191	98,84
264,402	112,46
264,613	85,22
264,824	108,26
265,035	94,44
265,247	83,22
265,458	132,49
265,669	88,83
265,88	115,67
266,091	97,24
266,302	103,45
266,514	100,45
266,725	127,48
266,936	83,22
267,147	140,3
267,358	112,66
267,569	78,81
267,78	110,86
267,991	71
268,202	104,05
268,414	87,43
268,625	94,44
268,836	87,03
269,047	92,43
269,258	101,85
269,469	86,43
269,68	103,25
269,891	112,46
270,102	108,26
270,313	93,44
270,524	99,44
270,735	85,62
270,945	103,25
271,156	117,87
271,367	86,22
271,578	91,03
271,789	142,31
272	108,46
272,211	90,23
272,422	90,03
272,633	87,63
272,844	95,04
273,054	115,87
273,265	93,64
273,476	125,88
273,687	95,04
273,898	90,03
274,109	78,21
274,319	109,66
274,53	111,86
274,741	103,65
274,952	114,27
275,162	122,08
275,373	118,47
275,584	108,26
275,795	108,26
276,005	108,46
276,216	107,66
276,427	100,85
276,637	90,63
276,848	108,46
277,059	92,43
277,269	140,9
277,48	101,65
277,691	80,22
277,901	107,46
278,112	105,65
278,323	117,67
278,533	53,78
278,744	93,84
278,954	108,26
279,165	110,26
279,376	129,29
279,586	113,66
279,797	129,69
280,007	100,45
280,218	103,45
280,428	108,46
280,639	88,63
280,849	110,26
281,06	127,28
281,27	84,42
281,481	145,71
281,691	126,08
281,902	95,44
282,112	104,45
282,322	136,3
282,533	110,66
282,743	122,08
282,954	114,27
283,164	129,29
283,374	77,01
283,585	132,49
283,795	126,08
284,006	138,1
284,216	98,44
284,426	133,69
284,637	145,71
284,847	127,08
285,057	110,66
285,268	115,07
285,478	104,25
285,688	118,47
285,898	115,67
286,109	127,69
286,319	132,69
286,529	139,5
286,739	117,87
286,95	109,86
287,16	125,28
287,37	136,3
287,58	130,69
287,79	137,9
288,001	125,68
288,211	132,09
288,421	121,88
288,631	130,09
288,841	133,09
289,051	144,31
289,261	87,43
289,471	143,31
289,682	110,46
289,892	116,67
290,102	122,28
290,312	139,3
290,522	102,85
290,732	148,92
290,942	112,46
291,152	136,1
291,362	131,29
291,572	134,7
291,782	127,48
291,992	121,68
292,202	122,88
292,412	171,15
292,622	106,45
292,832	130,69
293,042	108,46
293,252	105,85
293,462	133,49
293,672	131,69
293,881	139,1
294,091	139,7
294,301	136,1
294,511	127,89
294,721	137,5
294,931	149,52
295,141	111,66
295,35	135,9
295,56	137,3
295,77	156,13
295,98	160,13
296,19	106,65
296,4	120,88
296,609	137,9
296,819	136,9
297,029	150,92
297,239	123,88
297,448	130,69
297,658	110,46
297,868	156,93
298,077	153,92
298,287	146,71
298,497	151,12
298,706	134,7
298,916	127,08
299,126	128,49
299,335	144,71
299,545	183,37
299,755	136,3
299,964	122,68
300,174	125,88
300,384	135,5
300,593	129,49
300,803	130,29
301,012	150,12
301,222	120,47
301,431	138,9
301,641	191,98
301,851	154,32
302,06	174,95
302,27	179,36
302,479	183,97
302,689	167,94
302,898	174,75
303,107	205,6
303,317	193,58
303,526	199,59
303,736	177,96
303,945	174,75
304,155	206,8
304,364	188,17
304,574	195,98
304,783	208,6
304,992	227,03
305,202	232,04
305,411	249,46
305,62	258,07
305,83	262,88
306,039	294,33
306,248	293,93
306,458	347,2
306,667	336,19
306,876	314,96
307,086	364,23
307,295	360,22
307,504	389,66
307,713	390,67
307,923	424,52
308,132	382,65
308,341	425,72
308,55	436,53
308,76	442,54
308,969	465,17
309,178	491,21
309,387	535,68
309,596	583,75
309,805	607,78
310,015	682,89
310,224	705,72
310,433	714,94
310,642	767,61
310,851	775,22
311,06	827,1
311,269	858,34
311,478	843,72
311,687	973,11
311,896	951,68
312,106	990,94
312,315	1026,39
312,524	1031,19
312,733	1053,03
312,942	1147,56
313,151	1171,4
313,36	1176,21
313,569	1261,53
313,778	1244,5
313,987	1342,85
314,195	1329,23
314,404	1427,97
314,613	1393,12
314,822	1440,19
315,031	1454,41
315,24	1477,04
315,449	1495,67
315,658	1632,87
315,867	1713,38
316,076	1824,95
316,284	1839,97
316,493	1907,06
316,702	1913,27
316,911	1946,32
317,12	1990,79
317,329	2003
317,537	2065,49
317,746	2194,48
317,955	2206,9
318,164	2315,06
318,372	2325,87
318,581	2354,11
318,79	2422,41
318,999	2487,71
319,207	2521,15
319,416	2722,85
319,625	2753,49
319,833	2796,55
320,042	2791,55
320,251	2852,84
320,459	2844,82
320,668	2932,95
320,877	2766,71
321,085	2955,78
321,294	2929,35
321,502	2888,29
321,711	2850,03
321,92	2947,17
322,128	2890,09
322,337	3046,92
322,545	3053,33
322,754	3232,19
322,962	3288,27
323,171	3453,51
323,379	3503,78
323,588	3579,89
323,796	3659
324,005	3653,2
324,213	3748,13
324,422	3952,23
324,63	4184,37
324,839	4279,5
325,047	4543,49
325,256	4772,62
325,464	4760,8
325,672	5024,18
325,881	4919,43
326,089	5109,71
326,297	5074,06
326,506	5180,01
326,714	4986,53
326,923	5138,15
327,131	5031,59
327,339	5111,71
327,548	5154,57
327,756	5229,88
327,964	5361,07
328,172	5592,41
328,381	5608,63
328,589	5920,88
328,797	5913,27
329,005	6142,8
329,214	5954,33
329,422	5970,35
329,63	5845,77
329,838	5920,88
330,046	5669,72
330,255	5756,64
330,463	5871,01
330,671	5799,91
330,879	5772,47
331,087	5903,86
331,295	5832,76
331,503	5907,26
331,712	5834,96
331,92	5891,84
332,128	5830,55
332,336	5939,71
332,544	5695,76
332,752	5926,49
332,96	5775,27
333,168	5915,07
333,376	5735,81
333,584	6024,83
333,792	5963,75
334	6197,28
334,208	6052,27
334,416	6202,09
334,624	6078,71
334,832	5938,11
335,04	5809,72
335,248	5845,17
335,456	5655,9
335,664	5671,72
335,872	5592,21
336,08	5627,46
336,287	5550,55
336,495	5568,17
336,703	5525,51
336,911	5706,57
337,119	5823,74
337,327	5940,71
337,535	5969,75
337,742	6153,02
337,95	6064,29
338,158	6342,89
338,366	6296,23
338,573	6454,46
338,781	6452,85
338,989	6621,7
339,197	6737,47
339,404	6960,59
339,612	6698,01
339,82	6792,95
340,028	6618,29
340,235	6765,31
340,443	6462,07
340,651	6676,98
340,858	6746,88
341,066	6743,28
341,274	6754,49
341,481	6990,63
341,689	6835,41
341,896	7091,58
342,104	6900,7
342,312	7015,07
342,519	6819,19
342,727	6869,46
342,934	6551,2
343,142	6390,16
343,349	6158,63
343,557	6205,9
343,765	6077,31
343,972	6332,28
344,18	6504,33
344,387	6586,45
344,594	6711,63
344,802	6745,08
345,009	6637,32
345,217	6905,11
345,424	6568,02
345,632	6915,93
345,839	6806,57
346,047	7063,14
346,254	6893,69
346,461	6986,63
346,669	6802,16
346,876	6955,18
347,083	6749,08
347,291	6894,89
347,498	6900,5
347,705	7040,11
347,913	6923,74
348,12	6974,81
348,327	6684,59
348,535	7129,64
348,742	6813,18
348,949	7331,33
349,156	7285,46
349,364	7665,01
349,571	7700,46
349,778	7965,65
349,985	7850,08
350,192	7725,1
350,4	7521,8
350,607	7850,08
350,814	7663,01
351,021	7685,44
351,228	7435,48
351,435	7671,02
351,643	7370,38
351,85	7484,55
352,057	7436,48
352,264	7628,96
352,471	8038,55
352,678	8040,16
352,885	8020,93
353,092	8461,77
353,299	8307,94
353,506	8644,83
353,713	8395,47
353,92	8652,04
354,127	8554,3
354,334	8647,24
354,541	8506,23
354,748	8524,86
354,955	8317,56
355,162	8146,51
355,369	8065,39
355,576	8100,24
355,783	7594,51
355,99	7464,32
356,197	7177,1
356,404	7191,32
356,611	7048,12
356,817	7082,37
357,024	6661,36
357,231	6652,54
357,438	6421,21
357,645	6386,56
357,852	6412,4
358,058	6683,39
358,265	7003,65
358,472	7441,49
358,679	7829,85
358,885	8090,63
359,092	8206,2
359,299	8452,35
359,506	8206,8
359,712	8166,14
359,919	7907,36
360,126	7888,33
360,333	7710,68
360,539	7920,98
360,746	7687,24
360,953	7870,11
361,159	7913,97
361,366	8253,26
361,572	8228,23
361,779	8714,73
361,986	8620,4
362,192	8655,45
362,399	8637,62
362,605	8675,88
362,812	8581,94
363,019	8780,43
363,225	8993,94
363,432	9101,49
363,638	8878,17
363,845	9076,06
364,051	8977,11
364,258	9347,65
364,464	9438,38
364,671	9758,45
364,877	10148,41
365,084	10531,57
365,29	10582,44
365,496	10787,94
365,703	10610,88
365,909	10609,88
366,116	10509,33
366,322	10740,27
366,528	10791,54
366,735	10607,88
366,941	10483,1
367,147	10271,99
367,354	10221,92
367,56	10128,78
367,766	10010,61
367,973	10482,3
368,179	10225,32
368,385	10535,77
368,592	10674,17
368,798	11045,51
369,004	10925,74
369,21	10911,52
369,417	10715,23
369,623	10642,33
369,829	10443,64
370,035	10072,7
370,241	10376,94
370,448	10787,74
370,654	10658,75
370,86	10713,23
371,066	10082,52
371,272	10406,79
371,478	9691,75
371,684	9863,2
371,891	9660,5
372,097	9713,18
372,303	9450,6
372,509	9145,16
372,715	8904,61
372,921	8811,87
373,127	8468,18
373,333	8881,37
373,539	8539,68
373,745	8728,55
373,951	8351,81
374,157	8864,55
374,363	8787,64
374,569	9380,1
374,775	9389,31
374,981	9798,3
375,187	9882,83
375,393	10003,6
375,599	9760,65
375,804	10022,23
376,01	9949,72
376,216	10587,05
376,422	10560,61
376,628	11042,11
376,834	11407,84
377,04	11789,19
377,246	11936,4
377,451	12318,36
377,657	12103,85
377,863	12142,9
378,069	11559,06
378,274	11291,07
378,48	10852,23
378,686	10555,4
378,892	10233,94
379,097	10698,81
379,303	10565,62
379,509	10974,41
379,715	10905,11
379,92	11322,91
380,126	11043,51
380,332	11052,32
380,537	10569,02
380,743	10458,66
380,949	9873,61
381,154	9538,13
381,36	9089,88
381,565	8670,67
381,771	8242,05
381,977	8084,82
382,182	7539,03
382,388	7634,57
382,593	7380,4
382,799	7267,64
383,004	7412,65
383,21	7635,17
383,415	8100,04
383,621	8410,09
383,826	8913,22
384,032	9755,24
384,237	9500,67
384,443	9549,54
384,648	9575,98
384,854	9395,72
385,059	9429,37
385,265	9389,51
385,47	9576,58
385,675	9776,87
385,881	9642,48
386,086	9876,22
386,291	9658,5
386,497	10026,83
386,702	9496,27
386,907	9699,76
387,113	9789,89
387,318	9985,78
387,523	9732,21
387,729	9547,34
387,934	9804,11
388,139	10094,53
388,344	10255,17
388,55	10698,61
388,755	10938,16
388,96	11388,61
389,165	11501,57
389,371	11665,61
389,576	11488,75
389,781	11884,33
389,986	11885,73
390,191	12301,13
390,396	12277,9
390,601	12692,7
390,807	12458,96
391,012	12473,38
391,217	11976,46
391,422	12120,07
391,627	10785,13
391,832	10252,36
392,037	9206,05
392,242	8490,41
392,447	7632,76
392,652	7139,85
392,857	7065,74
393,062	7507,98
393,267	7812,42
393,472	8607,18
393,677	8953,88
393,882	9946,32
394,087	10685,19
394,292	11018,47
394,497	11187,52
394,702	11983,07
394,907	11719,69
395,112	11540,63
395,317	11079,56
395,521	10112,16
395,726	9247,51
395,931	8639,62
396,136	7893,34
396,341	8305,94
396,546	8465,77
396,75	9735,41
396,955	10490,31
397,16	11519,6
397,365	12055,98
397,57	13163,58
397,774	13648,89
397,979	14210,7
398,184	14758,69
398,389	14905,51
398,593	15307,69
398,798	15560,06
399,003	15285,26
399,207	15817,63
399,412	15930,59
399,617	16204,79
399,821	15816,83
400,026	16367,03
400,231	16478,59
400,435	16841,11
400,64	16648,03
400,844	16861,94
401,049	16340,19
401,254	16962,89
401,458	16986,32
401,663	17227,07
401,867	17470,22
402,072	17091,88
402,276	16678,08
402,481	17012,36
402,685	16436,73
402,89	16362,62
403,094	17172,39
403,299	16947,07
403,503	16810,47
403,708	17237,89
403,912	15968,25
404,116	16393,06
404,321	16355,01
404,525	16110,65
404,73	16411,89
404,934	16441,13
405,138	16114,66
405,343	16392,26
405,547	15665,81
405,751	15935,2
405,956	15368,18
406,16	16025,33
406,364	16021,52
406,569	16365,02
406,773	15987,68
406,977	16163,33
407,181	17214,85
407,386	16890,79
407,59	16738,56
407,794	17142,95
407,998	17497,87
408,202	18089,52
408,407	17269,53
408,611	17500,27
408,815	17027,98
409,019	16464,37
409,223	15628,96
409,427	16318,15
409,632	16021,32
409,836	16317,15
410,04	16624,6
410,244	17132,54
410,448	17063,03
410,652	17936,3
410,856	17852,18
411,06	17975,76
411,264	18147,61
411,468	18207,29
411,672	17674,92
411,876	18016,22
412,08	17360,27
412,284	18851,43
412,488	17560,16
412,692	18670,36
412,896	17422,16
413,1	17473,83
413,304	18118,56
413,508	18002
413,712	17412,74
413,916	18042,86
414,12	17427,76
414,323	17835,15
414,527	17220,86
414,731	18073,1
414,935	17703,36
415,139	18241,34
415,343	17599,61
415,546	18573,82
415,75	17787,48
415,954	18036,45
416,158	17848,37
416,361	17047,41
416,565	17411,54
416,769	17224,47
416,973	17068,24
417,176	17621,84
417,38	17035,39
417,584	16836,31
417,788	17255,71
417,991	17188,42
418,195	17118,72
418,398	17330,82
418,602	17256,31
418,806	16891,19
419,009	16669,86
419,213	17142,15
419,417	16554,9
419,62	17285,36
419,824	16951,07
420,027	17532,72
420,231	17813,92
420,434	18086,52
420,638	18060,68
420,841	17890,63
421,045	17898,45
421,248	17645,68
421,452	17255,91
421,655	17347,25
421,859	16792,84
422,062	16448,74
422,266	16846,12
422,469	16626,2
422,673	16750,18
422,876	17656,7
423,079	16181,76
423,283	17043,81
423,486	17529,51
423,689	17636,47
423,893	17735,21
424,096	16401,48
424,299	16758,79
424,503	16770,61
424,706	16569,12
424,909	16582,74
425,113	17068,24
425,316	16865,55
425,519	16102,84
425,722	17666,11
425,926	16333,58
426,129	16856,13
426,332	15558,25
426,535	16221,01
426,739	15808,82
426,942	15777,97
427,145	15332,93
427,348	16795,85
427,551	16076,81
427,754	15811,22
427,957	15789,59
428,161	15355,76
428,364	15493,36
428,567	15700,66
428,77	14803,36
428,973	14861,04
429,176	14269,79
429,379	13445,39
429,582	12883,18
429,785	12920,83
429,988	12393,07
430,191	13410,54
430,394	13232,48
430,597	14284,61
430,8	14939,56
431,003	16488,8
431,206	15710,67
431,409	17466,22
431,612	16754,59
431,815	17342,44
432,018	17766,65
432,221	18423,41
432,423	17952,32
432,626	19273,64
432,829	18312,45
433,032	18147,41
433,235	17950,12
433,438	17945,71
433,64	17170,39
433,843	17875,81
434,046	17959,33
434,249	17806,51
434,452	18995,84
434,654	18753,89
434,857	18969,8
435,06	19122,62
435,263	19856,48
435,465	20305,33
435,668	20287,31
435,871	20482,19
436,073	20004,1
436,276	20774,82
436,479	20057,38
436,681	20617,99
436,884	19544,43
437,087	19384,6
437,289	19337,13
437,492	19293,47
437,694	18504,92
437,897	18297,42
438,1	17970,55
438,302	18400,77
438,505	18900,7
438,707	19446,69
438,91	19235,18
439,112	19378,19
439,315	19063,73
439,517	19795,8
439,72	19759,14
439,922	19709,07
440,125	19886,33
440,327	19942,21
440,529	20074
440,732	22363,12
440,934	20306,54
441,137	21428,56
441,339	21126,12
441,541	21777,27
441,744	21022,57
441,946	21756,64
442,148	21749,03
442,351	22430,01
442,553	21131,93
442,755	22166,83
442,958	21333,43
443,16	21758,44
443,362	21001,54
443,565	21652,89
443,767	21479,84
443,969	21825,94
444,171	20988,93
444,373	21940,91
444,576	22017,82
444,778	21691,14
444,98	20372,03
445,182	21065,44
445,384	20769,81
445,586	21604,02
445,789	20827,49
445,991	21247,1
446,193	21547,94
446,395	22053,27
446,597	21654,89
446,799	21813,12
447,001	22530,76
447,203	22783,73
447,405	22205,29
447,607	22498,31
447,809	22660,15
448,011	22551,99
448,213	22562,41
448,415	22499,32
448,617	22106,55
448,819	22664,75
449,021	21596,61
449,223	23842,06
449,425	22602,46
449,627	23990,88
449,829	22795,95
450,031	25042,6
450,233	23063,73
450,435	23865,5
450,636	23245,8
450,838	22930,34
451,04	23432,87
451,242	22638,52
451,444	22012,41
451,646	22337,88
451,847	22311,64
452,049	21648,48
452,251	21493,66
452,453	21615,63
452,654	21318,4
452,856	21599,41
453,058	23372,38
453,26	22342,69
453,461	21969,95
453,663	22287,01
453,865	23716,08
454,066	24275,89
454,268	22102,34
454,47	21779,07
454,671	22373,33
454,873	22502,12
455,074	22150,61
455,276	23182,51
455,478	22053,27
455,679	23176,9
455,881	24078,8
456,082	23738,51
456,284	23141,45
456,485	23693,65
456,687	23935
456,888	24409,48
457,09	23400,82
457,291	23548,24
457,493	23439,08
457,694	24208,79
457,896	23264,42
458,097	23431,87
458,299	23518,79
458,5	23156,67
458,701	23411,44
458,903	24236,63
459,104	23841,86
459,306	23839,26
459,507	23730,5
459,708	24794,64
459,91	24108,25
460,111	24361,21
460,312	26130,18
460,514	24330,57
460,715	25282,55
460,916	26452,05
461,117	25106,29
461,319	25462,61
461,52	25949,72
461,721	25935,5
461,922	25717,78
462,124	25343,24
462,325	26735,66
462,526	26225,12
462,727	25301,58
462,928	26397,37
463,129	25197,43
463,331	26559,8
463,532	25736,41
463,733	25904,25
463,934	25509,08
464,135	27243,79
464,336	24896,59
464,537	27758,14
464,738	26578,63
464,939	26148,4
465,14	26551,99
465,341	28605,77
465,542	27642,97
465,743	27273,84
465,944	26243,74
466,145	28003,29
466,346	28148,7
466,547	27207,34
466,748	26923,93
466,949	28508,03
467,15	28431,51
467,351	27541,02
467,552	29080,66
467,753	28333,97
467,953	29038,59
468,154	28774,01
468,355	28080,21
468,556	28981,91
468,757	29984,97
468,958	29922,48
469,158	29168,78
469,359	28971,7
469,56	29097,28
469,761	28704,11
469,962	30608,07
470,162	30504,72
470,363	30539,17
470,564	31151,86
470,764	30769,1
470,965	31336,73
471,166	31228,37
471,366	33611,42
471,567	32553,89
471,768	33409,73
471,968	33043
472,169	32545,08
472,37	31610,12
472,57	32528,65
472,771	33352,45
472,971	34043,05
473,172	33742,81
473,373	34297,62
473,573	33545,33
473,774	34419,59
473,974	35620,74
474,175	37221,26
474,375	35970,84
474,576	35349,94
474,776	35909,15
474,977	36496
475,177	35792,18
475,377	34969,99
475,578	35076,95
475,778	35990,47
475,979	34713,42
476,179	36394,26
476,379	37041,6
476,58	36830,69
476,78	36823,88
476,981	37368,67
477,181	37638,26
477,381	37634,25
477,582	37561,75
477,782	39257,01
477,982	38330,46
478,182	38963,18
478,383	38512,13
478,583	39528,2
478,783	39803,2
478,983	40994,33
479,184	39869,09
479,384	41293,56
479,584	40011,9
479,784	40627,99
479,984	40274,68
480,184	40976,1
480,385	41413,53
480,585	43202,73
480,785	41979,75
480,985	43007,24
481,185	42315,44
481,385	43345,33
481,585	42110,74
481,785	43817,82
481,985	43480,33
482,185	44401,26
482,385	42754,68
482,585	43336,32
482,785	43876,3
482,985	43154,46
483,185	43095,37
483,385	43578,27
483,585	43327,91
483,785	43555,04
483,985	42713,62
484,185	44052,96
484,385	43247,99
484,585	43081,35
484,785	41450,79
484,985	41276,33
485,185	39536,81
485,384	39258,61
485,584	38571,61
485,784	38327,86
485,984	38659,74
486,184	39842,46
486,383	40507,22
486,583	41069,84
486,783	41356,05
486,983	42408,78
487,183	42863,84
487,382	43475,72
487,582	43784,77
487,782	44107,44
487,981	43497,55
488,181	44276,88
488,381	44299,72
488,58	44929,83
488,78	45177,39
488,98	46248,14
489,179	46590,44
489,379	47505,76
489,579	46677,16
489,778	47885,72
489,978	47118,8
490,177	47277,23
490,377	47650,37
490,576	46750,07
490,776	46406,37
490,975	46593,24
491,175	45722,98
491,374	45672,91
491,574	45218,25
491,773	45044,6
491,973	45708,56
492,172	47089,76
492,372	46606,46
492,571	47052,31
492,771	47045,9
492,97	47289,05
493,169	46625,69
493,369	48642,21
493,568	47709,26
493,767	48659,24
493,967	48514,23
494,166	49478,62
494,365	48541,27
494,565	48504,21
494,764	48516,23
494,963	48951,06
495,163	48717,92
495,362	48663,64
495,561	48028,92
495,76	49948,91
495,959	48663,44
496,159	48865,14
496,358	49008,94
496,557	49637,05
496,756	49033,98
496,955	49356,85
497,155	48283,29
497,354	48043,74
497,553	46915,31
497,752	47693,24
497,951	47653,58
498,15	47914,36
498,349	46953,96
498,548	48125,66
498,747	48240,83
498,946	48101,83
499,145	47485,54
499,344	47559,64
499,543	46712,21
499,742	47117,2
499,941	46367,92
500,14	46287
500,339	45762,64
500,538	46182,85
500,737	45432,96
500,936	45559,74
501,135	45421,74
501,334	46240,53
501,533	45828,93
501,732	46487,69
501,931	46439,02
502,129	46955,97
502,328	47127,02
502,527	47185,1
502,726	46184,85
502,925	46532,15
503,123	46461,65
503,322	46611,67
503,521	45687,13
503,72	46076,49
503,919	46462,45
504,117	46861,03
504,316	46861,43
504,515	47366,76
504,713	48393,25
504,912	48304,92
505,111	48307,13
505,309	49175,59
505,508	48687,08
505,707	49301,77
505,905	48255,85
506,104	48793,23
506,302	48329,96
506,501	48669,45
506,7	47842,85
506,898	48166,32
507,097	47426,05
507,295	47678,01
507,494	46775,71
507,692	47484,73
507,891	47666,2
508,089	48606,16
508,288	48813,66
508,486	49159,36
508,685	48572,11
508,883	48981,9
509,082	48780,61
509,28	49065,23
509,478	48325,75
509,677	49243,88
509,875	49247,49
510,073	49840,55
510,272	49427,95
510,47	49974,34
510,669	49730,39
510,867	50677,36
511,065	49930,08
511,263	50659,94
511,462	50359,1
511,66	50306,83
511,858	49857,57
512,056	50202,47
512,255	49594,19
512,453	49959,52
512,651	49431,16
512,849	49557,94
513,048	48653,03
513,246	49208,03
513,444	49035,58
513,642	48947,25
513,84	48997,13
514,038	49868,59
514,236	49461,4
514,435	49717,77
514,633	49809,5
514,831	50408,77
515,029	50610,87
515,227	50544,97
515,425	49155,56
515,623	49068,03
515,821	48013,9
516,019	46842
516,217	45491,85
516,415	45625,24
516,613	45188,41
516,811	45931,88
517,009	45928,88
517,207	46695,79
517,405	46271,18
517,602	46806,35
517,8	46170,03
517,998	46610,67
518,196	47566,45
518,394	48072,99
518,592	48125,46
518,79	49327
518,987	49256,1
519,185	50111,14
519,383	50101,53
519,581	50723,03
519,779	49936,89
519,976	51245,19
520,174	50648,32
520,372	51429,65
520,57	50736,65
520,767	51850,06
520,965	51168,67
521,163	51718,47
521,36	51540,61
521,558	51119,6
521,756	50607,06
521,953	50800,34
522,151	49929,08
522,349	50051,05
522,546	50185,05
522,744	50607,26
522,941	50422,39
523,139	51414,83
523,336	51935,99
523,534	52571,91
523,731	51767,34
523,929	52258,45
524,126	51825,43
524,324	51864,48
524,521	51882,71
524,719	51940,79
524,916	51367,36
525,114	50704,8
525,311	49964,33
525,509	49716,17
525,706	48247,44
525,903	47668,8
526,101	46826,78
526,298	46729,04
526,496	46308,03
526,693	47310,88
526,89	46801,54
527,088	47749,12
527,285	47600,3
527,482	48399,66
527,679	48358,4
527,877	49434,76
528,074	49309,18
528,271	50294,01
528,468	50423,39
528,666	50364,11
528,863	49697,34
529,06	50380,93
529,257	49265,92
529,454	49454,59
529,652	49489,24
529,849	50183,65
530,046	49654,48
530,243	50556,59
530,44	50131,37
530,637	50023,81
530,834	49746,01
531,031	49478,02
531,228	49034,18
531,425	49121,51
531,622	48049,15
531,819	47928,18
532,016	47048,3
532,213	46554,19
532,41	46893,08
532,607	47345,33
532,804	47331,11
533,001	47392,2
533,198	47381,78
533,395	47469,11
533,592	46524,54
533,789	47971,24
533,986	47308,08
534,183	48393,25
534,38	47944
534,576	48831,29
534,773	48151,5
534,97	48593,54
535,167	48404,67
535,364	49045,2
535,561	47759,93
535,757	48146,09
535,954	47039,09
536,151	47008,64
536,348	46570,61
536,544	46682,17
536,741	46346,68
536,938	47234,77
537,134	46424,6
537,331	47542,02
537,528	46590,04
537,724	47260,81
537,921	46142,19
538,118	47228,36
538,314	46095,92
538,511	46509,92
538,707	45555,34
538,904	45841,55
539,101	44898,99
539,297	45324,6
539,494	44167,73
539,69	44551,88
539,887	44061,97
540,083	44576,52
540,28	44095,22
540,476	44442,32
540,673	43985,26
540,869	45173,78
541,066	44578,52
541,262	44994,52
541,458	44652,63
541,655	44911
541,851	44702,3
542,048	45020,56
542,244	44696,29
542,44	44724,93
542,637	44040,34
542,833	45118,9
543,029	45134,33
543,226	45372,87
543,422	45062,82
543,618	45328,41
543,814	44990,12
544,011	45281,74
544,207	44351,19
544,403	44826,28
544,599	44902,39
544,796	45267,52
544,992	44823,48
545,188	44930,43
545,384	44683,87
545,58	44869,74
545,776	44641,21
545,972	44739,76
546,169	44165,12
546,365	44522,04
546,561	44230,82
546,757	44346,18
546,953	43913,16
547,149	43950,01
547,345	43346,94
547,541	44011,1
547,737	43360,96
547,933	43841,05
548,129	43456,49
548,325	44446,53
548,521	43711,46
548,717	44510,62
548,913	43503,36
549,109	44069,78
549,305	43642,36
549,501	43788,78
549,697	43466,51
549,892	43790,38
550,088	43061,32
550,284	43562,85
550,48	43210,14
550,676	44061,37
550,872	42794,54
551,067	43745,91
551,263	43120,01
551,459	43598,5
551,655	43083,95
551,85	43177,89
552,046	43065,93
552,242	42822,38
552,438	42559,39
552,633	42826,58
552,829	42613,67
553,025	43164,67
553,22	42755,68
553,416	42836,2
553,612	42615,48
553,807	43357,35
554,003	43287,45
554,198	43341,73
554,394	42989,22
554,59	43758,93
554,785	42583,63
554,981	43331,51
555,176	42629,7
555,372	42743,66
555,567	42441,62
555,763	42609,27
555,958	41739,41
556,154	41834,14
556,349	41781,27
556,545	41683,32
556,74	41152,76
556,936	41723,98
557,131	41258,51
557,326	41096,67
557,522	41138,13
557,717	41036,19
557,912	40363,01
558,108	40435,52
558,303	39981,66
558,498	40493,2
558,694	40157,31
558,889	40178,54
559,084	40411,68
559,28	40419,09
559,475	40208,79
559,67	40688,88
559,865	40564,7
560,061	40970,09
560,256	41144,94
560,451	40919,22
560,646	40377,63
560,841	41176,99
561,037	40314,94
561,232	40613,57
561,427	40173,74
561,622	40821,68
561,817	40208,19
562,012	40677,87
562,207	40811,66
562,402	41071,24
562,597	40404,27
562,792	40455,14
562,987	40429,31
563,182	40445,93
563,377	40130,27
563,572	40969,69
563,767	40085,21
563,962	40312,34
564,157	40125,47
564,352	40085,61
564,547	39952,22
564,742	40061,97
564,937	39364,76
565,132	39534,41
565,327	39105,59
565,522	39309,48
565,716	39015,06
565,911	39553,44
566,106	39230,97
566,301	39839,85
566,496	39296,66
566,691	40142,49
566,885	39738,51
567,08	39832,44
567,275	39205,33
567,47	39476,93
567,664	38547,38
567,859	39020,46
568,054	38610,27
568,248	39037,09
568,443	38714,22
568,638	38999,83
568,832	38447,83
569,027	38706,01
569,222	38278,99
569,416	38307,03
569,611	38155,01
569,805	38059,47
570	37831,34
570,195	37245,69
570,389	37510,28
570,584	37331,42
570,778	37175,99
570,973	38228,32
571,167	37476,03
571,362	38114,55
571,556	37823,53
571,751	38460,85
571,945	38091,12
572,139	38482,28
572,334	38231,32
572,528	38457,45
572,723	38048,26
572,917	38572,62
573,111	38311,64
573,306	38406,37
573,5	38468,46
573,694	38122,56
573,889	37963,33
574,083	38429,21
574,277	37596,4
574,472	37506,27
574,666	37299,77
574,86	37685,33
575,054	37318,4
575,249	37874,6
575,443	37184,6
575,637	37439,57
575,831	37249,5
576,025	37396,91
576,219	36959,88
576,414	37727,99
576,608	37377,88
576,802	37685,33
576,996	36954,07
577,19	37115,9
577,384	36989,72
577,578	36824,88
577,772	36249,85
577,966	37121,91
578,16	36294,11
578,354	36926,83
578,548	36599,35
578,742	37054,61
578,936	36780,42
579,13	37462,61
579,324	36954,27
579,518	37534,51
579,712	36872,95
579,906	37668,1
580,1	37003,14
580,294	37944,91
580,488	37307,78
580,682	37841,96
580,875	37542,32
581,069	37789,68
581,263	37715,97
581,457	38079,1
581,651	37887,82
581,845	38086,31
582,038	37718,98
582,232	38298,22
582,426	37578,97
582,62	38527,95
582,813	37892,63
583,007	38393,15
583,201	37487,44
583,394	38192,46
583,588	37881,01
583,782	38198,47
583,975	37884,02
584,169	38404,57
584,363	37826,33
584,556	37839,55
584,75	37276,14
584,943	37273,73
585,137	36886,97
585,33	36999,53
585,524	36582,13
585,718	37302,77
585,911	36648,43
586,105	37267,52
586,298	36656,84
586,491	37343,23
586,685	37156,56
586,878	37185,6
587,072	36640,41
587,265	36743,56
587,459	35951,22
587,652	36361,81
587,845	34815,77
588,039	34939,95
588,232	33896,24
588,426	33588,79
588,619	32517,44
588,812	32743,57
589,005	32392,86
589,199	32818,27
589,392	32700,1
589,585	33418,74
589,779	33244,49
589,972	33768,65
590,165	33685,53
590,358	34276,99
590,551	33962,93
590,745	34255,36
590,938	34085,71
591,131	34496,51
591,324	32934,24
591,517	34595,45
591,71	34397,96
591,904	34910,11
592,097	34378,13
592,29	34656,54
592,483	34074,69
592,676	34651,53
592,869	34101,93
593,062	34526,35
593,255	33991,98
593,448	34274,99
593,641	33561,15
593,834	33969,54
594,027	33585,39
594,22	33677,12
594,413	33567,56
594,606	33925,08
594,799	33458,6
594,992	34162,22
595,184	33614,63
595,377	33875,21
595,57	33871,8
595,763	34327,06
595,956	33789,28
596,149	34286,8
596,341	34306,83
596,534	34171,03
596,727	34030,83
596,92	34072,49
597,113	33744,62
597,305	33856,58
597,498	33658,29
597,691	33822,13
597,883	33433,57
598,076	33697,35
598,269	33554,74
598,462	33848,37
598,654	33727,39
598,847	33851,97
599,039	33701,15
599,232	33874,2
599,425	33543,52
599,617	33362,06
599,81	33496,26
600,002	33422,75
600,195	32851,32
600,387	33501,86
600,58	33058,42
600,772	33230,07
600,965	32758,99
601,157	33118,51
601,35	32846,11
601,542	32860,13
601,735	32763,59
601,927	33257,71
602,12	32852,52
602,312	33212,85
602,504	32889,98
602,697	33038,39
602,889	33241,09
603,082	33331,62
603,274	33200,03
603,466	33611,42
603,659	33045,6
603,851	33254,91
604,043	33225,06
604,235	33637,86
604,428	32724,34
604,62	33327,01
604,812	33064,23
605,004	33425,75
605,197	32825,08
605,389	33318,4
605,581	32716,53
605,773	33062,23
605,965	32665,25
606,157	33042,8
606,349	32630,6
606,542	32895,99
606,734	32435,12
606,926	32829,29
607,118	32382,64
607,31	32372,03
607,502	31928,98
607,694	32556,29
607,886	31768,95
608,078	32549,68
608,27	31830,04
608,462	32094,82
608,654	31771,96
608,846	32290,91
609,038	31747,52
609,23	31941,8
609,422	31721,88
609,614	31744,72
609,805	31453,09
609,997	31543,43
610,189	31863,09
610,381	32088,82
610,573	31483,34
610,765	32089,22
610,957	31521,59
611,148	31762,14
611,34	31250,4
611,532	32073,19
611,724	31499,36
611,915	31741,11
612,107	31419,65
612,299	32089,22
612,491	31371,78
612,682	31518,79
612,874	31152,06
613,066	31393,21
613,257	30876,66
613,449	31578,48
613,64	31310,09
613,832	31358,56
614,024	31604,71
614,215	31377,99
614,407	31657,19
614,598	31612,53
614,79	31410,63
614,981	31589,09
615,173	31329,72
615,364	31625,54
615,556	31044,5
615,747	31584,28
615,939	30727,04
616,13	31407,23
616,322	31205,94
616,513	31495,16
616,705	31182,3
616,896	31922,37
617,087	31518,79
617,279	32288,71
617,47	31846,26
617,661	32627
617,853	32108,04
618,044	32644,82
618,235	32510,43
618,427	32705,11
618,618	32529,66
618,809	32813,47
619	32468,97
619,192	33028,38
619,383	32617,98
619,574	33080,85
619,765	32723,74
619,957	33381,49
620,148	32712,92
620,339	33564,56
620,53	32879,56
620,721	33133,53
620,912	32508,83
621,103	33389,5
621,294	32724,54
621,485	33109,7
621,677	32587,74
621,868	32928,43
622,059	32272,28
622,25	32595,95
622,441	32249,05
622,632	32320,35
622,823	32115,25
623,014	32139,49
623,205	32032,73
623,395	31743,92
623,586	31429,26
623,777	31906,75
623,968	31211,54
624,159	31495,76
624,35	31100,38
624,541	31273,03
624,732	31102,59
624,923	31208,94
625,113	30920,32
625,304	30903,5
625,495	30735,25
625,686	31155,06
625,877	30957,18
626,067	31057,92
626,258	31024,07
626,449	30879,06
626,639	30317,45
626,83	30254,36
627,021	29596,8
627,211	29682,73
627,402	29176,59
627,593	29344,04
627,783	29206,24
627,974	29423,55
628,165	29132,73
628,355	29187,81
628,546	28895,19
628,736	29274,34
628,927	28596,55
629,117	29003,14
629,308	28706,71
629,498	28825,89
629,689	28509,83
629,879	28991,93
630,07	28883,17
630,26	28897,59
630,451	28694,9
630,641	28929,64
630,832	28300,12
631,022	28575,12
631,212	28267,28
631,403	28438,93
631,593	28092,02
631,784	28780,02
631,974	28285,9
632,164	28914,41
632,355	28461,56
632,545	28909,81
632,735	28601,36
632,925	28481,99
633,116	28269,08
633,306	28301,93
633,496	28097,63
633,686	28512,23
633,876	28242,84
634,067	28295,52
634,257	28204,18
634,447	28568,71
634,637	28494,21
634,827	28552,89
635,017	28039,55
635,208	28345,59
635,398	27909,16
635,588	28553,29
635,778	27915,17
635,968	28593,55
636,158	28079
636,348	28472,97
636,538	28209,99
636,728	28691,29
636,918	28114,86
637,108	28518,24
637,298	28214,4
637,488	28539,67
637,678	28219,01
637,868	28360,81
638,057	28056,77
638,247	28254,26
638,437	28071,19
638,627	28326,36
638,817	27606,32
639,007	28277,89
639,197	27663,8
639,386	27720,28
639,576	27195,32
639,766	27571,27
639,956	27328,12
640,145	27588,49
640,335	27116,01
640,525	27665,2
640,715	27104,59
640,904	27443,68
641,094	26803,35
641,284	27356,36
641,473	27144,05
641,663	27172,29
641,853	27132,83
642,042	27342,14
642,232	26818,38
642,421	27133,03
642,611	26972,8
642,801	27070,74
642,99	26897,69
643,18	27403,22
643,369	26950,17
643,559	27087,57
643,748	26970,4
643,938	26879,87
644,127	26706,21
644,317	26949,37
644,506	26441,23
644,695	26487,7
644,885	26781,72
645,074	26436,82
645,264	26226,92
645,453	26214,5
645,642	26057,67
645,832	26246,95
646,021	25683,33
646,21	25954,72
646,4	25608,42
646,589	25710,77
646,778	25315,4
646,967	25562,96
647,157	24994,53
647,346	25223,86
647,535	24979,31
647,724	25132,53
647,913	24955,28
648,103	25096,08
648,292	24737,16
648,481	24830,69
648,67	24635,21
648,859	24662,45
649,048	24486
649,237	24647,43
649,427	24540,67
649,616	24949,67
649,805	24614,78
649,994	25133,53
650,183	24989,93
650,372	25320,2
650,561	24614,38
650,75	24921,83
650,939	24566,51
651,128	24784,43
651,317	24511,03
651,506	24874,56
651,694	24585,54
651,883	25054,42
652,072	24611,58
652,261	24933,04
652,45	24513,03
652,639	25049,81
652,828	24869,35
653,016	25037,79
653,205	24572,52
653,394	24989,93
653,583	24675,07
653,772	24927,64
653,96	24400,67
654,149	24429,71
654,338	23838,66
654,527	24323,16
654,715	23543,43
654,904	23549,44
655,093	22508,13
655,281	22283,4
655,47	21464,21
655,658	21377,09
655,847	21173,79
656,036	21415,34
656,224	21194,22
656,413	21825,54
656,601	21757,84
656,79	22245,35
656,978	22017,02
657,167	22689,19
657,355	22574,62
657,544	23477,53
657,732	23052,72
657,921	23473,93
658,109	23292,67
658,298	23739,11
658,486	23252,61
658,675	23593,1
658,863	23585,89
659,051	23692,85
659,24	23415,04
659,428	24004,5
659,616	23751,53
659,805	23883,72
659,993	23459,31
660,181	24114,06
660,37	23668,81
660,558	23920,78
660,746	23730,7
660,934	24057,97
661,123	23667,81
661,311	24301,93
661,499	23738,31
661,687	24076,4
661,875	23666,61
662,064	23867,5
662,252	23508,98
662,44	23493,16
662,628	23659,2
662,816	23640,77
663,004	23434,87
663,192	23481,94
663,38	23341,54
663,568	23349,75
663,756	23321,11
663,944	23383,6
664,132	23248,8
664,32	23503,17
664,508	23115,61
664,696	23434,67
664,884	22961,18
665,072	23375,59
665,26	22736,86
665,448	23437,07
665,636	23025,68
665,824	23124,42
666,012	22796,35
666,199	23144,05
666,387	22717,43
666,575	22882,47
666,763	22807,56
666,951	22903,5
667,139	22637,32
667,326	22943,16
667,514	22428,21
667,702	22851,83
667,889	22614,68
668,077	22815,17
668,265	22532,56
668,453	22696,2
668,64	22602,87
668,828	22704,81
669,016	22097,53
669,203	22582,04
669,391	22138,39
669,578	22606,67
669,766	22143,8
669,954	22371,33
670,141	22127,38
670,329	22266,98
670,516	22076,3
670,704	22034,64
670,891	21653,09
671,079	22009,2
671,266	21540,73
671,454	21889,43
671,641	21575,18
671,828	21781,88
672,016	21577,58
672,203	21822,93
672,391	21445,59
672,578	21852,58
672,765	21380,49
672,953	21770,06
673,14	21470,02
673,327	21618,04
673,515	21599,01
673,702	21596,41
673,889	21098,28
674,077	21495,26
674,264	21168,79
674,451	21349,25
674,638	21103,09
674,825	21532,91
675,013	20955,68
675,2	21237,69
675,387	21016,57
675,574	21163,18
675,761	21017,97
675,948	21000,34
676,136	20907,21
676,323	21130,33
676,51	20634,01
676,697	21189,22
676,884	20892,19
677,071	20987,92
677,258	20697,3
677,445	20856,73
677,632	20633,41
677,819	20745,57
678,006	20510,23
678,193	20735,96
678,38	20515,64
678,567	20604,77
678,754	20519,85
678,94	20620,19
679,127	20404,08
679,314	20595,15
679,501	20336,38
679,688	20502,62
679,875	20101,84
680,062	20551,09
680,248	20114,26
680,435	20279,3
680,622	20060,38
680,809	20439,53
680,995	19879,32
681,182	20383,45
681,369	20023,53
681,556	20280,7
681,742	19961,84
681,929	20044,36
682,116	19961,44
682,302	20154,72
682,489	19787,38
682,675	19885,73
682,862	19652,39
683,049	19789,59
683,235	19698,66
683,422	19557,45
683,608	19213,35
683,795	19594,1
683,981	19192,32
684,168	19495,56
684,354	19184,31
684,541	19657,6
684,727	19183,31
684,914	19390,61
685,1	18991,03
685,287	18944,76
685,473	18608,27
685,659	18434,42
685,846	17511,08
686,032	17011,76
686,218	15913,17
686,405	15451,5
686,591	14828,4
686,777	14690,2
686,964	14415,8
687,15	14674,77
687,336	14609,08
687,522	14814,78
687,709	14733,26
687,895	14837,41
688,081	14726,85
688,267	14831,8
688,454	14632,71
688,64	14742,87
688,826	14631,31
689,012	14999,24
689,198	14921,73
689,384	15189,52
689,57	15042,31
689,756	15284,46
689,942	15282,25
690,128	15601,12
690,314	15375,99
690,501	15902,35
690,687	16030,94
690,873	16100,44
691,058	16063,39
691,244	16384,25
691,43	16191,57
691,616	16676,07
691,802	16498,22
691,988	16628,4
692,174	16398,07
692,36	16524,85
692,546	16411,09
692,732	16467,37
692,917	16232,63
693,103	16485,6
693,289	16225,62
693,475	16432,12
693,661	15876,71
693,846	16425,71
694,032	16028,94
694,218	16331,17
694,404	16103,04
694,589	16306,94
694,775	16172,94
694,961	16340,99
695,146	16151,31
695,332	16543,68
695,518	16362,62
695,703	16623
695,889	16518,85
696,074	16871,16
696,26	16775,82
696,446	17061,03
696,631	16796,45
696,817	16994,94
697,002	16834,1
697,188	17032,99
697,373	16564,91
697,559	16869,95
697,744	16611,78
697,93	16788,24
698,115	16509,43
698,3	16614,38
698,486	16261,87
698,671	16496,41
698,857	16219,01
699,042	16437,33
699,227	15993,88
699,413	16302,93
699,598	15979,66
699,783	16199,78
699,969	15810,42
700,154	16003,1
700,339	15706,47
700,524	16022,33
700,71	15553,45
700,895	15949,82
701,08	15589,7
701,265	15916,57
701,45	15642,98
701,636	15897,34
701,821	15460,71
702,006	15886,53
702,191	15670,22
702,376	15883,12
702,561	15739,32
702,746	15829,05
702,931	15792,99
703,116	15985,87
703,301	15625,95
703,486	15981,27
703,671	15930,39
703,856	16125,48
704,041	16084,22
704,226	16097,03
704,411	15852,88
704,596	16264,68
704,781	15935,6
704,966	16148,71
705,151	15813,42
705,336	15952,42
705,521	15842,06
705,706	16268,88
705,89	15921,38
706,075	15988,08
706,26	15891,94
706,445	16103,84
706,63	15933,6
706,814	16006,5
706,999	15915,17
707,184	16220,81
707,368	15941,41
707,553	16073,4
707,738	15755,54
707,923	15909,16
708,107	15722,89
708,292	16068,79
708,476	15877,32
708,661	15876,51
708,846	15805,21
709,03	16073,6
709,215	15895,94
709,399	16133,89
709,584	15801,41
709,768	15999,89
709,953	15797,6
710,137	15771,36
710,322	15749,53
710,506	15853,48
710,691	15830,65
710,875	15910,16
711,06	15530,41
711,244	15668,81
711,429	15430,87
711,613	15757,74
711,797	15526,61
711,982	15634,76
712,166	15415,65
712,35	15587,7
712,535	15345,14
712,719	15456,51
712,903	15266,63
713,088	15535,22
713,272	15190,92
713,456	15417,05
713,64	15237,59
713,824	15282,45
714,009	14954,78
714,193	15131,23
714,377	14653,94
714,561	14747,28
714,745	14836,81
714,929	14851,43
715,113	14670,77
715,298	14742,27
715,482	14316,05
715,666	14311,25
715,85	13896,44
716,034	13763,05
716,218	13191,62
716,402	13136,14
716,586	12615,79
716,77	12570,52
716,954	12243,05
717,138	12070,2
717,322	11635,57
717,506	11718,89
717,689	11272,24
717,873	11163,08
718,057	10745,08
718,241	10677,58
718,425	10462,27
718,609	10467,67
718,793	10277,6
718,976	10270,19
719,16	10064,49
719,344	10206,9
719,528	9918,28
719,711	10029,24
719,895	10042,46
720,079	10327,87
720,263	10453,85
720,446	10795,35
720,63	10868,66
720,814	11323,11
720,997	11443,29
721,181	11686,64
721,364	11584,09
721,548	11859,69
721,732	11859,09
721,915	12036,35
722,099	11842,47
722,282	11930,19
722,466	11592,1
722,649	11712,48
722,833	11377,39
723,016	11291,67
723,2	11151,67
723,383	11178,1
723,567	10940,56
723,75	11097,79
723,934	10924,14
724,117	10942,16
724,3	10852,23
724,484	10895,09
724,667	10737,67
724,85	10939,16
725,034	10673,37
725,217	10856,84
725,4	10666,36
725,584	10811,77
725,767	10696,61
725,95	10964,19
726,133	10873,06
726,317	11001,05
726,5	10773,52
726,683	10822,99
726,866	10602,87
727,049	10696,21
727,232	10588,05
727,416	10780,33
727,599	10825,39
727,782	10860,64
727,965	10715,63
728,148	10739,07
728,331	10691,2
728,514	10604,47
728,697	10629,71
728,88	10796,55
729,063	10695,8
729,246	10974,61
729,429	10798,55
729,612	10867,65
729,795	10683,59
729,978	10859,04
730,161	10667,56
730,344	10942,96
730,526	10796,35
730,709	10946,97
730,892	10838,61
731,075	10967,2
731,258	10842,02
731,441	11192,52
731,623	11181,31
731,806	11349,55
731,989	11292,87
732,172	11480,74
732,354	11435,48
732,537	11620,14
732,72	11696,86
732,903	11995,89
733,085	11844,47
733,268	12025,93
733,451	11922,98
733,633	12313,15
733,816	11881,52
733,998	12123,47
734,181	12027,74
734,364	12210
734,546	12101,64
734,729	12151,31
734,911	12000,9
735,094	12022,73
735,276	11947,42
735,459	11977,26
735,641	11959,24
735,824	11900,95
736,006	11861,49
736,188	11971,85
736,371	11651,99
736,553	11915,57
736,736	11727,9
736,918	12005,5
737,1	11868,1
737,283	12087,02
737,465	12009,51
737,647	11967,25
737,83	11838,66
738,012	11742,32
738,194	11746,13
738,376	11818,43
738,559	11802,41
738,741	11796,6
738,923	11689,45
739,105	12003,1
739,287	11730,5
739,469	11971,85
739,652	11802,41
739,834	11847,47
740,016	11674,02
740,198	12002,9
740,38	11621,15
740,562	11739,72
740,744	11578,48
740,926	11764,55
741,108	11500,97
741,29	11673,82
741,472	11584,29
741,654	11650,19
741,836	11547,04
742,018	11798,2
742,2	11472,33
742,382	11737,11
742,564	11644,18
742,746	11681,23
742,928	11677,23
743,109	11803,21
743,291	11612,53
743,473	11618,14
743,655	11539,43
743,837	11686,84
744,019	11425,86
744,2	11672,62
744,382	11477,94
744,564	11617,74
744,746	11512,79
744,927	11494,56
745,109	11484,15
745,291	11438,08
745,472	11425,86
745,654	11434,48
745,836	11202,54
746,017	11362,17
746,199	11247,2
746,38	11347,95
746,562	11133,04
746,744	11428,67
746,925	11189,72
747,107	11267,23
747,288	11155,67
747,47	11251,01
747,651	11011,86
747,833	11263,03
748,014	11056,33
748,195	11080,96
748,377	10972,61
748,558	11008,26
748,74	10816,78
748,921	10966,6
749,102	10819,58
749,284	10860,04
749,465	10665,36
749,646	10887,88
749,828	10683,99
750,009	10745,28
750,19	10531,37
750,372	10693,2
750,553	10510,34
750,734	10592,25
750,915	10483,1
751,096	10674,37
751,278	10555,6
751,459	10665,76
751,64	10416
751,821	10557,2
752,002	10433,82
752,183	10495,51
752,364	10466,27
752,546	10601,87
752,727	10423,41
752,908	10564,61
753,089	10424,21
753,27	10593,06
753,451	10495,91
753,632	10589,85
753,813	10466,27
753,994	10550,39
754,175	10313,25
754,356	10630,31
754,536	10376,94
754,717	10579,64
754,898	10318,66
755,079	10503,13
755,26	10403,18
755,441	10578,03
755,622	10487,3
755,802	10471,28
755,983	10521,15
756,164	10618,69
756,345	10503,13
756,526	10749,08
756,706	10463,87
756,887	10631,71
757,068	10523,56
757,248	10780,73
757,429	10540,18
757,61	10740,67
757,79	10576,03
757,971	10700,41
758,152	10478,29
758,332	10411,39
758,513	9927,29
758,693	9395,72
758,874	8707,52
759,055	7937,81
759,235	6852,63
759,416	6146,61
759,596	5198,04
759,777	4582,54
759,957	3921,18
760,137	3407,64
760,318	2969,2
760,498	2797,76
760,679	2706,02
760,859	2917,13
761,039	3147,86
761,22	3471,93
761,4	3610,73
761,581	3887,74
761,761	3923,19
761,941	3906,36
762,121	3823,64
762,302	3845,47
762,482	3818,64
762,662	3841,07
762,842	3809,02
763,023	3869,71
763,203	3921,58
763,383	4023,93
763,563	4035,95
763,743	4286,91
763,923	4371,64
764,104	4726,15
764,284	4882,78
764,464	5285,56
764,644	5428,57
764,824	5891,04
765,004	5992,79
765,184	6469,68
765,364	6630,11
765,544	7054,53
765,724	7198,13
765,904	7702,67
766,084	7865,1
766,264	8156,72
766,444	8400,08
766,624	8832,1
766,804	8917,43
766,983	9361,27
767,163	9438,98
767,343	9682,94
767,523	9701,76
767,703	10064,69
767,883	10024,63
768,062	10257,57
768,242	10180,06
768,422	10361,52
768,602	10296,83
768,781	10593,06
768,961	10301,43
769,141	10573,03
769,32	10368,93
769,5	10713,83
769,68	10486,3
769,859	10667,56
770,039	10497,92
770,219	10623,5
770,398	10553,6
770,578	10601,07
770,757	10497,52
770,937	10508,93
771,116	10290,82
771,296	10534,77
771,475	10370,33
771,655	10522,35
771,834	10333,28
772,014	10516,14
772,193	10263,58
772,373	10320,06
772,552	10188,27
772,731	10241,55
772,911	10220,32
773,09	10297,23
773,269	10046,26
773,449	10079,71
773,628	10065,89
773,807	9964,14
773,987	9882,63
774,166	9893,84
774,345	9654,29
774,524	9861,4
774,704	9553,15
774,883	9719,59
775,062	9562,56
775,241	9574,78
775,42	9457,41
775,6	9624,65
775,779	9487,65
775,958	9604,42
776,137	9421,56
776,316	9585,6
776,495	9334,23
776,674	9515,09
776,853	9252,91
777,032	9368,88
777,211	9086,47
777,39	9208,05
777,569	9108,3
777,748	9115,91
777,927	8869,96
778,106	8981,92
778,285	8930,25
778,464	8925,84
778,643	8862,35
778,822	8890,19
779	8738,77
779,179	8825,89
779,358	8611,58
779,537	8808,87
779,716	8562,71
779,894	8732,36
780,073	8481,19
780,252	8524,06
780,431	8351,61
780,609	8600,37
780,788	8390,86
780,967	8394,07
781,145	8267,08
781,324	8437,33
781,503	8248,26
781,681	8346,4
781,86	8192,98
782,039	8203,39
782,217	8089,23
782,396	8142,9
782,574	7978,67
782,753	8008,31
782,931	7829,25
783,11	7947,22
783,288	7732,11
783,467	7853,28
783,645	7720,69
783,824	7799,21
784,002	7659,2
784,18	7655,2
784,359	7649,39
784,537	7685,44
784,716	7615,74
784,894	7636,77
785,072	7607,13
785,251	7583,69
785,429	7442,69
785,607	7588,5
785,785	7461,12
785,964	7458,11
786,142	7430,87
786,32	7376,39
786,498	7367,78
786,677	7272,64
786,855	7255,82
787,033	7278,65
787,211	7150,87
787,389	7259,82
787,567	6994,44
787,745	7073,75
787,923	6969,8
788,102	7025,08
788,28	6950,78
788,458	6887,28
788,636	6828,8
788,814	6763,91
788,992	6745,68
789,17	6709,23
789,348	6647,54
789,526	6670,77
789,703	6505,53
789,881	6671,17
790,059	6545,59
790,237	6526,16
790,415	6417,6
790,593	6509,14
790,771	6409,19
790,949	6453,25
791,126	6409,59
791,304	6427,82
791,482	6312,05
791,66	6335,28
791,837	6295,23
792,015	6307,84
792,193	6164,84
792,371	6257,37
792,548	6116,97
792,726	6182,46
792,904	6083,52
793,081	6195,08
793,259	6112,36
793,436	6252,16
793,614	6058,48
793,792	6177,86
793,969	5988,98
794,147	6179,26
794,324	6061,29
794,502	6085,92
794,679	6038,45
794,857	6025,43
795,034	5927,09
795,212	5901,66
795,389	5917,48
795,567	5837,76
795,744	5771,87
795,921	5752,44
796,099	5691,35
796,276	5763,45
796,453	5698,56
796,631	5828,35
796,808	5760,65
796,985	5771,87
797,163	5708,98
797,34	5749,84
797,517	5717,99
797,694	5837,36
797,872	5687,95
798,049	5760,85
798,226	5676,53
798,403	5620,25
798,58	5531,52
798,757	5668,32
798,935	5529,32
799,112	5585,6
799,289	5450,2
799,466	5546,94
799,643	5416,55
799,82	5500,87
799,997	5334,63
800,174	5424,36
800,351	5281,76
800,528	5342,85
800,705	5283,56
800,882	5299,18
801,059	5235,89
801,236	5288,77
801,413	5283,16
801,589	5290,17
801,766	5164,39
801,943	5237,69
802,12	5089,68
802,297	5156,58
802,474	5056,23
802,651	5104,3
802,827	5039,2
803,004	5107,9
803,181	5029,19
803,358	5122,53
803,534	4987,93
803,711	5094,28
803,888	5003,75
804,064	5001,15
804,241	4988,53
804,418	5034,8
804,594	4961,69
804,771	5034
804,947	4973,11
805,124	5020,58
805,301	4941,66
805,477	4999,95
805,654	4955,88
805,83	4966,3
806,007	4952,28
806,183	4965,3
806,36	4915,43
806,536	5007,56
806,712	4946,07
806,889	4898,4
807,065	4879,57
807,242	4882,58
807,418	4799,06
807,594	4801,46
807,771	4766,61
807,947	4788,84
808,123	4699,31
808,3	4741,37
808,476	4631,41
808,652	4651,24
808,829	4596,16
809,005	4576,53
809,181	4445,94
809,357	4475,79
809,533	4425,72
809,71	4461,57
809,886	4419,31
810,062	4386,86
810,238	4425,72
810,414	4386,46
810,59	4321,56
810,766	4312,75
810,942	4277,3
811,118	4308,55
811,294	4202,99
811,47	4238,64
811,646	4164,94
811,822	4166,14
811,998	4062,99
812,174	4171,55
812,35	4066,8
812,526	3984,88
812,702	3900,95
812,878	3898,35
813,054	3743,73
813,23	3748,33
813,405	3663,61
813,581	3669,02
813,757	3635,97
813,933	3501,98
814,109	3452,71
814,284	3469,33
814,46	3338,34
814,636	3291,07
814,812	3277,45
814,987	3316,71
815,163	3194,73
815,339	3224,77
815,514	3150,67
815,69	3097,19
815,866	3027,49
816,041	3031,29
816,217	2933,55
816,392	3009,06
816,568	3043,91
816,743	3087,38
816,919	3000,05
817,094	3073,96
817,27	3009,26
817,445	2982,62
817,621	2912,92
817,796	2945,77
817,972	2954,78
818,147	3044,51
818,322	3013,47
818,498	3028,09
818,673	3081,77
818,849	3073,96
819,024	2979,82
819,199	3017,27
819,375	3011,87
819,55	3111,01
819,725	3092,78
819,9	3205,95
820,076	3255,62
820,251	3349,76
820,426	3330,53
820,601	3443,69
820,776	3311,5
820,952	3329,33
821,127	3240,2
821,302	3242,6
821,477	3229,98
821,652	3175,7
821,827	3045,31
822,002	2892,69
822,177	2748,28
822,352	2642,33
822,527	2538,78
822,702	2530,77
822,877	2565,02
823,052	2653,95
823,227	2691,2
823,402	2823,19
823,577	2898,7
823,752	2976,61
823,927	2962,79
824,102	3057,13
824,277	3066,14
824,451	3151,47
824,626	3128,44
824,801	3125,83
824,976	3049,32
825,151	3109,01
825,325	3092,18
825,5	3091,98
825,675	3028,89
825,85	3161,08
826,024	3106
826,199	3156,28
826,374	3128,44
826,548	3127,03
826,723	3005,86
826,897	2998,45
827,072	2978,22
827,247	2873,67
827,421	2780,13
827,596	2862,65
827,77	2826,2
827,945	2813,58
828,119	2802,96
828,294	2832,41
828,468	2843,82
828,643	2821,59
828,817	2773,32
828,992	2808,17
829,166	2776,93
829,34	2819,99
829,515	2771,92
829,689	2802,56
829,864	2817,78
830,038	2780,73
830,212	2781,13
830,386	2764,91
830,561	2815,18
830,735	2840,42
830,909	2772,32
831,084	2768,91
831,258	2742,88
831,432	2751,89
831,606	2671,97
831,78	2737,47
831,954	2757,1
832,129	2723,05
832,303	2715,24
832,477	2737,07
832,651	2710,63
832,825	2719,04
832,999	2666,57
833,173	2694,61
833,347	2596,86
833,521	2696,61
833,695	2664,56
833,869	2786,14
834,043	2702,42
834,217	2777,13
834,391	2767,31
834,565	2814,98
834,739	2785,74
834,913	2813,18
835,086	2772,92
835,26	2797,96
835,434	2752,49
835,608	2778,73
835,782	2746,08
835,956	2800,56
836,129	2730,46
836,303	2790,14
836,477	2790,55
836,651	2772,32
836,824	2751,29
836,998	2754,89
837,172	2714,64
837,345	2771,32
837,519	2745,68
837,693	2759,3
837,866	2712,63
838,04	2711,63
838,213	2685,79
838,387	2715,04
838,56	2691,8
838,734	2731,66
838,907	2710,43
839,081	2727,65
839,254	2679,98
839,428	2725,05
839,601	2701,42
839,775	2719,24
839,948	2684,99
840,122	2696,61
840,295	2625,91
840,468	2682,79
840,642	2670,97
840,815	2655,95
840,988	2647,74
841,162	2632,12
841,335	2634,12
841,508	2643,93
841,682	2619,5
841,855	2666,16
842,028	2615,49
842,201	2651,74
842,374	2573,43
842,548	2582,24
842,721	2593,66
842,894	2610,28
843,067	2585,05
843,24	2565,22
843,413	2527,76
843,586	2527,16
843,759	2523,96
843,932	2522,76
844,105	2522,36
844,278	2493,92
844,451	2518,75
844,624	2530,77
844,797	2504,73
844,97	2520,35
845,143	2472,68
845,316	2516,15
845,489	2494,52
845,662	2450,65
845,835	2433,83
846,008	2485,1
846,18	2461,67
846,353	2479,29
846,526	2466,48
846,699	2441,44
846,872	2402,78
847,044	2422,81
847,217	2414,8
847,39	2430,02
847,563	2365,33
847,735	2436,43
847,908	2416,4
848,081	2407,19
848,253	2345,1
848,426	2369,53
848,598	2306,64
848,771	2350,91
848,944	2240,95
849,116	2247,56
849,289	2194,08
849,461	2186,07
849,634	2106,15
849,806	2161,43
849,979	2142,21
850,151	2176,05
850,324	2197,29
850,496	2202,09
850,668	2184,87
850,841	2183,06
851,013	2178,86
851,186	2155,02
851,358	2156,43
851,53	2191,68
851,703	2091,33
851,875	2162,03
852,047	2151,42
852,219	2228,73
852,392	2104,75
852,564	2127,58
852,736	2118,77
852,908	2076,11
853,081	2073,51
853,253	1969,15
853,425	1931,1
853,597	1894,25
853,769	1832,76
853,941	1848,18
854,113	1808,92
854,285	1798,11
854,457	1838,36
854,63	1889,24
854,802	1877,42
854,974	1910,67
855,146	1912,47
855,318	1885,23
855,489	1926,49
855,661	1932,3
855,833	1916,88
856,005	1950,13
856,177	1937,51
856,349	1975,96
856,521	1932,5
856,693	1978,17
856,865	1950,73
857,036	1946,52
857,208	1933,5
857,38	1975,16
857,552	1954,73
857,723	1999,8
857,895	1929,3
858,067	1939,71
858,239	1927,89
858,41	1936,51
858,582	1945,92
858,754	1891,44
858,925	1930,3
859,097	1913,07
859,268	1863,8
859,44	1889,04
859,612	1901,06
859,783	1914,07
859,955	1855,99
860,126	1862
860,298	1838,77
860,469	1822,54
860,641	1841,57
860,812	1882,03
860,983	1795,3
861,155	1850,58
861,326	1796,3
861,498	1781,28
861,669	1809,32
861,84	1770,87
862,012	1774,87
862,183	1779,08
862,354	1774,07
862,526	1806,32
862,697	1786,49
862,868	1795,1
863,039	1721,8
863,211	1753,24
863,382	1741,22
863,553	1745,63
863,724	1706,77
863,895	1723,8
864,066	1675,53
864,238	1690,75
864,409	1653,3
864,58	1687,75
864,751	1647,49
864,922	1692,75
865,093	1636,67
865,264	1596,41
865,435	1577,79
865,606	1562,97
865,777	1509,29
865,948	1533,32
866,119	1464,42
866,29	1461,02
866,461	1496,07
866,632	1485,85
866,802	1469,83
866,973	1492,06
867,144	1490,46
867,315	1516,9
867,486	1550,75
867,657	1513,29
867,827	1492,86
867,998	1502,48
868,169	1487,86
868,34	1480,25
868,51	1527,31
868,681	1493,67
868,852	1499,87
869,022	1494,87
869,193	1462,62
869,364	1499,67
869,534	1492,66
869,705	1498,47
869,875	1512,29
870,046	1491,66
870,217	1466,63
870,387	1491,66
870,558	1449,2
870,728	1504,68
870,899	1434,98
871,069	1479,24
871,239	1428,37
871,41	1463,62
871,58	1427,57
871,751	1434,78
871,921	1469,63
872,091	1471,63
872,262	1432,38
872,432	1424,57
872,602	1411,55
872,773	1392,92
872,943	1401,93
873,113	1365,88
873,284	1373,89
873,454	1388,11
873,624	1384,91
873,794	1415,75
873,964	1341,04
874,135	1362,88
874,305	1302,99
874,475	1334,23
874,645	1345,05
874,815	1340,84
874,985	1338,04
875,155	1343,85
875,325	1282,56
875,495	1298,78
875,665	1288,77
875,835	1304,99
876,005	1295,58
876,175	1313,4
876,345	1243,7
876,515	1281,16
876,685	1264,53
876,855	1274,55
877,025	1254,12
877,195	1243,9
877,365	1252,12
877,534	1260,33
877,704	1221,27
877,874	1199,84
878,044	1243,1
878,214	1244,5
878,383	1234,09
878,553	1213,66
878,723	1211,86
878,892	1191,63
879,062	1192,03
879,232	1187,22
879,401	1192,03
879,571	1205,25
879,741	1190,63
879,91	1210,86
880,08	1161,58
880,249	1167,99
880,419	1148,36
880,589	1149,57
880,758	1138,55
880,928	1129,74
881,097	1106,1
881,267	1132,74
881,436	1117,32
881,605	1113,71
881,775	1123,73
881,944	1119,92
882,114	1106,7
882,283	1134,95
882,452	1081,67
882,622	1091,88
882,791	1115,12
882,96	1120,32
883,13	1106,9
883,299	1127,73
883,468	1068,65
883,637	1086,47
883,807	1057,23
883,976	1138,15
884,145	1053,63
884,314	1056,83
884,483	1074,26
884,652	1058,63
884,822	1081,87
884,991	1058,63
885,16	1029,79
885,329	1094,89
885,498	1054,63
885,667	1049,42
885,836	1025,59
886,005	1043,41
886,174	1019,58
886,343	992,34
886,512	998,35
886,681	1009,36
886,85	957,89
887,019	986,13
887,187	1007,76
887,356	968,9
887,525	977,32
887,694	997,35
887,863	980,52
888,032	974,11
888,2	962,7
888,369	983,73
888,538	963,7
888,707	983,33
888,875	958,89
889,044	929,05
889,213	925,44
889,381	975,51
889,55	934,65
889,719	965,5
889,887	926,84
890,056	943,27
890,224	926,64
890,393	938,66
890,562	902,21
890,73	940,46
890,899	931,65
891,067	900,41
891,236	896,8
891,404	951,88
891,573	942,27
891,741	954,08
891,909	896,4
892,078	899,8
892,246	874,17
892,415	877,17
892,583	885,58
892,751	867,16
892,92	880,78
893,088	895
893,256	831,71
893,424	827,5
893,593	826,7
893,761	861,95
893,929	807,47
894,097	827,7
894,265	816,48
894,434	805,07
894,602	792,05
894,77	774,22
894,938	814,68
895,106	760,2
895,274	722,35
895,442	755,19
895,61	717,34
895,778	711,73
895,946	718,34
896,114	711,93
896,282	733,96
896,45	666,87
896,618	705,12
896,786	662,06
896,954	654,65
897,122	637,22
897,29	636,42
897,458	615,19
897,625	639,03
897,793	595,36
897,961	598,97
898,129	627,61
898,297	583,95
898,464	583,15
898,632	602,97
898,8	586,95
898,968	554,3
899,135	554,3
899,303	483,2
899,471	538,08
899,638	564,52
899,806	529,27
899,973	533,27
900,141	528,87
900,309	547,89
900,476	556,91
900,644	513,04
900,811	549,3
900,979	514,85
901,146	532,07
901,314	520,65
901,481	481,8
901,649	478,39
901,816	508,84
901,983	513,64
902,151	509,44
