Data from Lichquelle_USB4F055801__7__007.txt Node

Date: Thu Feb 19 14:05:41 CET 2026
User: Versuch 234
Spectrometer: USB4F05580
Trigger mode: 4
Integration Time (sec): 4,500000E-2
Scans to average: 10
Electric dark correction enabled: true
Nonlinearity correction enabled: false
Boxcar width: 0
XAxis mode: Wavelengths
Number of Pixels in Spectrum: 3648
>>>>>Begin Spectral Data<<<<<
197,409	-62,79
197,623	-62,79
197,837	-62,79
198,051	-55,38
198,265	-54,78
198,479	8,11
198,693	12,32
198,907	2,9
199,122	11,52
199,336	-4,71
199,55	-3,1
199,763	-5,51
199,977	-4,71
200,191	-13,72
200,405	-7,51
200,619	-22,53
200,833	26,94
201,047	5,91
201,261	27,94
201,475	29,94
201,689	58,38
201,903	37,55
202,117	48,77
202,331	28,54
202,545	72,61
202,758	42,56
202,972	29,74
203,186	60,39
203,4	52,38
203,614	39,76
203,828	43,96
204,041	44,36
204,255	43,56
204,469	61,99
204,683	32,15
204,897	40,36
205,11	21,13
205,324	25,34
205,538	65,19
205,752	50,97
205,965	31,15
206,179	36,35
206,393	43,76
206,606	46,77
206,82	36,15
207,034	44,16
207,248	44,36
207,461	27,54
207,675	26,74
207,889	42,36
208,102	48,77
208,316	46,17
208,529	53,58
208,743	47,57
208,957	46,17
209,17	35,75
209,384	56,98
209,597	44,16
209,811	22,93
210,025	38,76
210,238	38,16
210,452	23,13
210,665	54,58
210,879	65,8
211,092	53,98
211,306	34,35
211,519	45,57
211,733	40,96
211,946	35,35
212,16	31,95
212,373	43,36
212,587	39,76
212,8	44,76
213,014	22,73
213,227	45,97
213,44	59,19
213,654	21,93
213,867	10,11
214,081	25,94
214,294	48,17
214,507	56,58
214,721	34,75
214,934	29,94
215,148	70,4
215,361	27,54
215,574	45,77
215,788	54,58
216,001	55,38
216,214	51,98
216,428	44,16
216,641	28,54
216,854	40,16
217,067	50,77
217,281	48,77
217,494	56,98
217,707	47,97
217,92	65,6
218,134	29,94
218,347	67,8
218,56	61,59
218,773	50,77
218,986	28,74
219,2	53,78
219,413	38,76
219,626	38,16
219,839	34,55
220,052	55,38
220,265	46,97
220,479	39,36
220,692	54,78
220,905	41,96
221,118	62,79
221,331	58,79
221,544	42,56
221,757	59,79
221,97	24,94
222,183	44,76
222,396	32,95
222,609	75,81
222,822	53,38
223,035	47,37
223,249	41,76
223,462	50,37
223,675	34,75
223,887	77,41
224,1	20,73
224,313	55,18
224,526	56,58
224,739	65,39
224,952	30,54
225,165	56,78
225,378	61,79
225,591	51,17
225,804	54,18
226,017	58,38
226,23	97,04
226,443	47,17
226,656	44,97
226,868	58,58
227,081	32,75
227,294	57,18
227,507	48,77
227,72	82,62
227,933	34,15
228,145	53,38
228,358	44,36
228,571	40,76
228,784	58,18
228,997	36,55
229,209	39,56
229,422	75,81
229,635	27,74
229,848	33,35
230,06	53,58
230,273	54,78
230,486	55,78
230,698	68,8
230,911	31,75
231,124	51,78
231,336	62,39
231,549	75,41
231,762	32,95
231,974	44,97
232,187	27,54
232,4	42,56
232,612	28,94
232,825	43,16
233,038	48,17
233,25	83,42
233,463	60,19
233,675	51,78
233,888	57,38
234,1	38,76
234,313	45,77
234,526	33,55
234,738	50,17
234,951	39,56
235,163	35,15
235,376	72,2
235,588	58,38
235,801	86,63
236,013	52,98
236,226	63,99
236,438	61,99
236,65	60,79
236,863	41,36
237,075	43,96
237,288	93,03
237,5	68,6
237,713	63,99
237,925	67,2
238,137	43,56
238,35	63,79
238,562	37,15
238,774	53,98
238,987	42,16
239,199	32,75
239,411	35,55
239,624	43,76
239,836	74,41
240,048	61,19
240,261	32,15
240,473	87,23
240,685	45,17
240,897	46,17
241,11	40,76
241,322	49,37
241,534	69,2
241,746	59,79
241,959	34,95
242,171	51,17
242,383	75,21
242,595	79,82
242,807	67,6
243,02	67
243,232	33,75
243,444	60,99
243,656	21,93
243,868	77,01
244,08	65,39
244,293	60,99
244,505	70,6
244,717	51,78
244,929	24,34
245,141	79,21
245,353	49,37
245,565	37,75
245,777	58,58
245,989	45,37
246,201	68,2
246,413	32,35
246,625	60,39
246,837	54,38
247,049	50,57
247,261	54,18
247,473	67,8
247,685	70,6
247,897	69
248,109	79,82
248,321	51,17
248,533	57,18
248,745	51,37
248,957	66,2
249,169	79,42
249,381	48,37
249,593	76,81
249,804	62,79
250,016	45,17
250,228	50,97
250,44	53,98
250,652	54,78
250,864	34,55
251,075	54,38
251,287	74,61
251,499	48,57
251,711	36,35
251,923	76,21
252,134	51,17
252,346	65,39
252,558	73,81
252,77	73,21
252,982	75,81
253,193	42,16
253,405	55,18
253,617	53,18
253,828	50,77
254,04	80,02
254,252	56,98
254,463	64,39
254,675	54,98
254,887	68,6
255,098	48,17
255,31	40,36
255,522	49,77
255,733	50,17
255,945	53,18
256,157	76,81
256,368	79,01
256,58	64,79
256,791	45,57
257,003	62,19
257,214	52,78
257,426	90,23
257,637	40,76
257,849	58,58
258,061	74,21
258,272	69,8
258,484	54,78
258,695	61,79
258,907	62,39
259,118	46,17
259,329	64,39
259,541	55,38
259,752	78,21
259,964	89,83
260,175	82,82
260,387	68
260,598	50,97
260,809	51,78
261,021	77,41
261,232	66,4
261,444	53,38
261,655	51,57
261,866	72,2
262,078	60,59
262,289	53,38
262,5	36,75
262,712	44,36
262,923	89,63
263,134	56,58
263,345	73,61
263,557	57,58
263,768	77,61
263,979	72,2
264,191	59,99
264,402	70,8
264,613	35,55
264,824	96,84
265,035	52,18
265,247	53,58
265,458	90,23
265,669	59,79
265,88	62,19
266,091	62,59
266,302	69
266,514	67
266,725	85,42
266,936	50,97
267,147	90,63
267,358	68,2
267,569	42,16
267,78	75,61
267,991	95,44
268,202	83,22
268,414	77,81
268,625	53,18
268,836	59,19
269,047	31,75
269,258	81,42
269,469	56,58
269,68	64,79
269,891	89,23
270,102	80,42
270,313	53,38
270,524	81,62
270,735	64,79
270,945	90,43
271,156	71,8
271,367	61,79
271,578	62,79
271,789	88,03
272	25,94
272,211	72,81
272,422	48,77
272,633	56,98
272,844	85,22
273,054	89,83
273,265	69,6
273,476	99,24
273,687	60,79
273,898	53,18
274,109	78,41
274,319	74,61
274,53	59,19
274,741	91,83
274,952	76,61
275,162	74,61
275,373	84,82
275,584	84,42
275,795	67,8
276,005	56,38
276,216	73,61
276,427	68,4
276,637	68,2
276,848	68,4
277,059	76,01
277,269	73,21
277,48	74,61
277,691	48,97
277,901	65,39
278,112	87,03
278,323	56,98
278,533	25,34
278,744	59,19
278,954	84,22
279,165	79,82
279,376	76,61
279,586	95,44
279,797	64,59
280,007	62,39
280,218	59,19
280,428	51,57
280,639	66
280,849	71,8
281,06	60,39
281,27	64,79
281,481	101,25
281,691	82,02
281,902	66,6
282,112	59,59
282,322	85,82
282,533	92,83
282,743	56,78
282,954	72,2
283,164	102,25
283,374	35,95
283,585	52,38
283,795	75,21
284,006	91,83
284,216	53,98
284,426	91,43
284,637	75,21
284,847	68,4
285,057	93,64
285,268	82,22
285,478	78,61
285,688	65,19
285,898	71,6
286,109	71,2
286,319	73,01
286,529	96,64
286,739	50,97
286,95	61,59
287,16	75,81
287,37	91,23
287,58	63,39
287,79	59,99
288,001	66,4
288,211	91,23
288,421	64,39
288,631	82,62
288,841	67
289,051	100,25
289,261	60,39
289,471	100,05
289,682	85,22
289,892	56,58
290,102	55,98
290,312	50,77
290,522	60,19
290,732	64,99
290,942	73,21
291,152	102,25
291,362	70,6
291,572	95,24
291,782	73,81
291,992	58,58
292,202	88,83
292,412	129,49
292,622	60,79
292,832	69,6
293,042	80,42
293,252	55,98
293,462	85,22
293,672	92,43
293,881	94,24
294,091	74,61
294,301	86,22
294,511	76,81
294,721	80,02
294,931	76,81
295,141	78,01
295,35	94,04
295,56	104,25
295,77	78,41
295,98	69,8
296,19	77,41
296,4	55,18
296,609	89,23
296,819	91,83
297,029	71,8
297,239	84,62
297,448	78,01
297,658	45,77
297,868	47,57
298,077	104,05
298,287	79,82
298,497	76,61
298,706	72,81
298,916	71
299,126	60,59
299,335	96,44
299,545	106,05
299,755	80,82
299,964	81,62
300,174	58,18
300,384	100,25
300,593	81,82
300,803	70,2
301,012	86,22
301,222	61,79
301,431	96,04
301,641	119,87
301,851	60,39
302,06	93,64
302,27	87,43
302,479	80,62
302,689	77,41
302,898	72,61
303,107	83,42
303,317	87,23
303,526	91,43
303,736	103,05
303,945	86,02
304,155	87,63
304,364	61,99
304,574	67
304,783	97,84
304,992	67,6
305,202	102,85
305,411	113,87
305,62	58,79
305,83	79,62
306,039	99,44
306,248	73,61
306,458	118,27
306,667	89,23
306,876	46,97
307,086	101,25
307,295	91,23
307,504	83,82
307,713	101,85
307,923	122,68
308,132	101,25
308,341	103,45
308,55	89,43
308,76	96,04
308,969	70,2
309,178	88,23
309,387	76,21
309,596	95,24
309,805	88,03
310,015	88,03
310,224	105,65
310,433	85,42
310,642	103,05
310,851	86,22
311,06	95,84
311,269	118,07
311,478	87,63
311,687	114,47
311,896	83,02
312,106	103,85
312,315	84,82
312,524	69,6
312,733	60,99
312,942	54,78
313,151	88,83
313,36	108,06
313,569	100,45
313,778	91,03
313,987	97,64
314,195	117,67
314,404	113,87
314,613	137,1
314,822	92,83
315,031	133,89
315,24	87,23
315,449	104,25
315,658	83,42
315,867	135,3
316,076	114,47
316,284	102,25
316,493	109,66
316,702	113,26
316,911	103,85
317,12	103,05
317,329	123,88
317,537	94,64
317,746	108,66
317,955	116,67
318,164	145,31
318,372	105,65
318,581	101,85
318,79	164,74
318,999	124,28
319,207	120,07
319,416	148,52
319,625	119,47
319,833	134,09
320,042	135,7
320,251	118,67
320,459	141,1
320,668	135,3
320,877	156,33
321,085	183,57
321,294	152,32
321,502	149,52
321,711	173,15
321,92	188,97
322,128	190,78
322,337	137,5
322,545	161,53
322,754	142,91
322,962	142,11
323,171	174,15
323,379	195,98
323,588	179,36
323,796	187,17
324,005	183,37
324,213	184,17
324,422	191,18
324,63	240,65
324,839	218,42
325,047	234,04
325,256	245,46
325,464	259,48
325,672	265,69
325,881	264,68
326,089	263,68
326,297	296,53
326,506	293,33
326,714	277,5
326,923	276,5
327,131	303,54
327,339	290,72
327,548	345
327,756	339,19
327,964	358,02
328,172	366,03
328,381	368,23
328,589	412,7
328,797	401,88
329,005	438,54
329,214	414,7
329,422	436,13
329,63	430,32
329,838	444,54
330,046	472,18
330,255	443,14
330,463	491,01
330,671	511,44
330,879	509,64
331,087	516,65
331,295	547,89
331,503	557,51
331,712	584,35
331,92	558,51
332,128	592,96
332,336	630,41
332,544	629,01
332,752	632,82
332,96	651,24
333,168	660,26
333,376	649,64
333,584	701,12
333,792	733,36
334	721,95
334,208	768,01
334,416	795,25
334,624	775,82
334,832	782,23
335,04	777,03
335,248	823,69
335,456	821,49
335,664	838,92
335,872	822,29
336,08	848,53
336,287	887,39
336,495	857,54
336,703	904,81
336,911	897
337,119	978,92
337,327	1004,36
337,535	1028,19
337,742	1078,66
337,95	1053,43
338,158	1136,75
338,366	1154,97
338,573	1199,44
338,781	1186,62
338,989	1259,53
339,197	1310
339,404	1369,69
339,612	1328,23
339,82	1387,11
340,028	1354,46
340,235	1411,95
340,443	1365,68
340,651	1415,95
340,858	1472,63
341,066	1446,8
341,274	1523,11
341,481	1618,25
341,689	1585,4
341,896	1634,07
342,104	1649,89
342,312	1657,7
342,519	1672,32
342,727	1671,32
342,934	1626,86
343,142	1602,62
343,349	1577,79
343,557	1596,81
343,765	1606,63
343,972	1704,57
344,18	1805,32
344,387	1812,33
344,594	1880,03
344,802	1888,64
345,009	1891,64
345,217	1984,98
345,424	1914,27
345,632	2026,84
345,839	2006,81
346,047	2129,79
346,254	2116,77
346,461	2120,37
346,669	2115,57
346,876	2160,23
347,083	2165,04
347,291	2185,47
347,498	2247,16
347,705	2308,05
347,913	2301,24
348,12	2340,09
348,327	2265,18
348,535	2418,41
348,742	2375,94
348,949	2604,68
349,156	2598,47
349,364	2713,43
349,571	2751,69
349,778	2860,65
349,985	2858,04
350,192	2866,66
350,4	2764,11
350,607	2952,98
350,814	2908,12
351,021	2915,73
351,228	2843,42
351,435	2961,99
351,643	2899,3
351,85	2964,8
352,057	2960,19
352,264	3024,68
352,471	3233,39
352,678	3261,43
352,885	3310,7
353,092	3499,77
353,299	3501,38
353,506	3614,14
353,713	3552,85
353,92	3675,43
354,127	3669,22
354,334	3713,68
354,541	3726,1
354,748	3744,53
354,955	3635,17
355,162	3580,09
355,369	3547,24
355,576	3611,54
355,783	3415,05
355,99	3356,97
356,197	3231,38
356,404	3346,75
356,611	3272,84
356,817	3270,04
357,024	3143,66
357,231	3218,37
357,438	3076,96
357,645	3073,36
357,852	3128,23
358,058	3249,21
358,265	3469,73
358,472	3700,86
358,679	3873,52
358,885	3963,85
359,092	4164,14
359,299	4238,64
359,506	4144,11
359,712	4151,72
359,919	4020,13
360,126	4061,19
360,333	3988,48
360,539	4100,64
360,746	3967,65
360,953	4109,46
361,159	4207,2
361,366	4352,41
361,572	4367,63
361,779	4668,27
361,986	4628,81
362,192	4654,85
362,399	4656,25
362,605	4736,57
362,812	4690,5
363,019	4880,57
363,225	4938,26
363,432	5051,02
363,638	4909,62
363,845	5031,99
364,051	5016,37
364,258	5251,11
364,464	5391,92
364,671	5521,3
364,877	5837,36
365,084	6038,85
365,29	6058,88
365,496	6134,99
365,703	6109,16
365,909	6145,21
366,116	6102,35
366,322	6216,11
366,528	6236,34
366,735	6235,34
366,941	6175,45
367,147	6059,68
367,354	6090,13
367,56	6043,26
367,766	5984,37
367,973	6214,31
368,179	6133,59
368,385	6354,31
368,592	6423,61
368,798	6661,36
369,004	6568,22
369,21	6579,44
369,417	6513,34
369,623	6468,68
369,829	6356,51
370,035	6219,52
370,241	6372,54
370,448	6645,33
370,654	6609,28
370,86	6605,88
371,066	6211,1
371,272	6433,23
371,478	6007,41
371,684	6084,92
371,891	6064,09
372,097	6044,66
372,303	5874,42
372,509	5680,13
372,715	5540,53
372,921	5524,31
373,127	5389,51
373,333	5602,82
373,539	5433,18
373,745	5532,12
373,951	5290,37
374,157	5651,49
374,363	5657,1
374,569	6026,24
374,775	6067,5
374,981	6351,31
375,187	6371,74
375,393	6456,06
375,599	6226,13
375,804	6483,1
376,01	6443,84
376,216	6876,47
376,422	6814,58
376,628	7259,82
376,834	7442,29
377,04	7620,75
377,246	7742,12
377,451	7945,62
377,657	7782,78
377,863	7847,88
378,069	7484,15
378,274	7358,57
378,48	7020,68
378,686	6879,67
378,892	6702,22
379,097	6968,6
379,303	6954,18
379,509	7267,03
379,715	7177,1
379,92	7552,25
380,126	7273,64
380,332	7344,15
380,537	7020,68
380,743	6865,65
380,949	6503,33
381,154	6332,08
381,36	6045,66
381,565	5786,09
381,771	5462,22
381,977	5346,25
382,182	5011,16
382,388	5087,68
382,593	4948,67
382,799	4881,18
383,004	5006,16
383,21	5213,86
383,415	5522,51
383,621	5756,64
383,826	6063,09
384,032	6739,07
384,237	6536,78
384,443	6501,93
384,648	6620,7
384,854	6522,96
385,059	6431,82
385,265	6546,79
385,47	6585,45
385,675	6774,32
385,881	6750,08
386,086	6874,26
386,291	6739,87
386,497	7012,06
386,702	6578,64
386,907	6781,73
387,113	6861,45
387,318	6980,62
387,523	6843,22
387,729	6720,44
387,934	6931,35
388,139	7099,39
388,344	7324,12
388,55	7672,02
388,755	7822,84
388,96	8102,85
389,165	8176,95
389,371	8329,57
389,576	8179,36
389,781	8472,98
389,986	8523,86
390,191	8847,53
390,396	8820,49
390,601	9108,5
390,807	8950,47
391,012	8937,86
391,217	8618,99
391,422	8576,73
391,627	7673,82
391,832	7370,78
392,037	6561,61
392,242	6027,64
392,447	5457,41
392,652	5191,02
392,857	5137,35
393,062	5481,25
393,267	5769,66
393,472	6335,88
393,677	6587,45
393,882	7374,59
394,087	7888,13
394,292	8136,7
394,497	8195,18
394,702	8755,39
394,907	8517,25
395,112	8443,14
395,317	8061,39
395,521	7390,61
395,726	6767,91
395,931	6292,02
396,136	5894,24
396,341	6191,68
396,546	6334,48
396,75	7305,49
396,955	7873,31
397,16	8596,56
397,365	9010,76
397,57	9787,49
397,774	10184,06
397,979	10547,99
398,184	10951,17
398,389	11039,9
398,593	11414,05
398,798	11610,73
399,003	11465,12
399,207	11862,1
399,412	11846,27
399,617	12085,02
399,821	11786,79
400,026	12238,24
400,231	12293,32
400,435	12594,36
400,64	12508,83
400,844	12598,36
401,049	12236,64
401,254	12745,58
401,458	12748,98
401,663	12875,16
401,867	13091,08
402,072	12854,33
402,276	12468,57
402,481	12754,19
402,685	12368,23
402,89	12348,6
403,094	12980,52
403,299	12728,75
403,503	12587,15
403,708	12974,11
403,912	12020,93
404,116	12390,06
404,321	12398,67
404,525	12250,66
404,73	12322,36
404,934	12372,03
405,138	12161,13
405,343	12408,69
405,547	11900,15
405,751	12068,59
405,956	11611,73
406,16	12071,8
406,364	12144,3
406,569	12464,97
406,773	12115,26
406,977	12234,64
407,181	13077,86
407,386	12848,93
407,59	12763,4
407,794	13052,02
407,998	13242,7
408,202	13752,84
408,407	13111,51
408,611	13268,53
408,815	12856,54
409,019	12512,84
409,223	11853,08
409,427	12347,6
409,632	12086,82
409,836	12377,24
410,04	12735,76
410,244	13146,76
410,448	12986,33
410,652	13640,27
410,856	13538,12
411,06	13658,5
411,264	13768,26
411,468	13841,56
411,672	13436,78
411,876	13613,63
412,08	13196,83
412,284	14343,89
412,488	13418,95
412,692	14268,78
412,896	13259,92
413,1	13321,81
413,304	13839,96
413,508	13623,25
413,712	13306,19
413,916	13697,36
414,12	13281,55
414,323	13675,12
414,527	13125,93
414,731	13709,57
414,935	13452,4
415,139	13883,63
415,343	13435,18
415,546	14143
415,75	13418,15
415,954	13709,77
416,158	13586,8
416,361	13031,99
416,565	13190,42
416,769	13132,74
416,973	12965,09
417,176	13356,26
417,38	13037,4
417,584	12849,13
417,788	13251,31
417,991	13128,53
418,195	13078,66
418,398	13236,09
418,602	13187,42
418,806	12855,54
419,009	12797,25
419,213	13081,46
419,417	12673,67
419,62	13238,69
419,824	12936,45
420,027	13473,23
420,231	13577,78
420,434	13809,52
420,638	13822,14
420,841	13618,24
421,045	13696,15
421,248	13472,43
421,452	13196,03
421,655	13233,48
421,859	12779,83
422,062	12577,33
422,266	12892,59
422,469	12773,42
422,673	12849,13
422,876	13515,49
423,079	12451,55
423,283	13085,27
423,486	13469,83
423,689	13495,66
423,893	13545,34
424,096	12524,86
424,299	12955,28
424,503	12927,44
424,706	12705,12
424,909	12746,78
425,113	13023,78
425,316	13012,36
425,519	12450,55
425,722	13523,7
425,926	12564,71
426,129	13038
426,332	11917,98
426,535	12436,93
426,739	12080,41
426,942	12138,9
427,145	11809,22
427,348	12923,43
427,551	12294,32
427,754	12171,54
427,957	12101,44
428,161	11748,73
428,364	11845,67
428,567	12067,79
428,77	11309,49
428,973	11390,81
429,176	10981,42
429,379	10271,39
429,582	9884,83
429,785	9875,62
429,988	9596,41
430,191	10353,91
430,394	10276
430,597	11077,56
430,8	11571,47
431,003	12776,42
431,206	12186,97
431,409	13409,34
431,612	12890,19
431,815	13369,68
432,018	13708,97
432,221	14169,64
432,423	13890,04
432,626	14858,24
432,829	14060,68
433,032	13992,18
433,235	13826,74
433,438	13790,09
433,64	13303,18
433,843	13816,93
434,046	13928,49
434,249	13852,98
434,452	14726,05
434,654	14446,84
434,857	14668,36
435,06	14778,92
435,263	15448,69
435,465	15708,27
435,668	15665,81
435,871	15791,19
436,073	15407,23
436,276	16027,73
436,479	15486,55
436,681	15872,31
436,884	15063,94
437,087	14977,61
437,289	14864,25
437,492	14852,23
437,694	14271,59
437,897	14143,4
438,1	13927,69
438,302	14277,2
438,505	14620,09
438,707	14948,17
438,91	14888,08
439,112	15013,66
439,315	14745,27
439,517	15346,75
439,72	15229,78
439,922	15227,37
440,125	15414,24
440,327	15523,8
440,529	15536,62
440,732	17414,34
440,934	15679,83
441,137	16603,57
441,339	16360,42
441,541	16937,85
441,744	16322,96
441,946	16787,23
442,148	16838,51
442,351	17374,49
442,553	16384,05
442,755	17152,97
442,958	16557,9
443,16	16846,32
443,362	16308,34
443,565	16864,55
443,767	16679,68
443,969	16943,46
444,171	16273,69
444,373	16916,42
444,576	17048,61
444,778	16841,51
444,98	15734,31
445,182	16332,58
445,384	16127,48
445,586	16798,65
445,789	16237,24
445,991	16540,08
446,193	16807,26
446,395	17182,21
446,597	16763
446,799	16931,24
447,001	17580,38
447,203	17806,71
447,405	17217,46
447,607	17487,65
447,809	17668,51
448,011	17427,56
448,213	17542,93
448,415	17546,14
448,617	17220,06
448,819	17597,01
449,021	16798,45
449,223	18605,87
449,425	17517,29
449,627	18767,31
449,829	17669,11
450,031	19518,79
450,233	18051,67
450,435	18581,84
450,636	18089,52
450,838	17871,61
451,04	18337,28
451,242	17575,98
451,444	17130,53
451,646	17351,25
451,847	17306,39
452,049	16742,17
452,251	16649,84
452,453	16993,73
452,654	16664,26
452,856	16972,3
453,058	18194,68
453,26	17411,34
453,461	17174,2
453,663	17365,27
453,865	18609,48
454,066	18998,84
454,268	17308,39
454,47	17141,75
454,671	17503,27
454,873	17588
455,074	17233,68
455,276	18093,53
455,478	17248,5
455,679	18241,54
455,881	18831,8
456,082	18612,88
456,284	18190,67
456,485	18525,76
456,687	18815,78
456,888	19122,42
457,09	18470,07
457,291	18441,83
457,493	18396,77
457,694	18963,79
457,896	18294,82
458,097	18468,27
458,299	18437,43
458,5	18069,89
458,701	18292,42
458,903	18963,79
459,104	18762,3
459,306	18685,59
459,507	18616,09
459,708	19392,81
459,91	18944,36
460,111	19267,03
460,312	20455,15
460,514	19096,98
460,715	19867,7
460,916	20789,64
461,117	19758,54
461,319	20024,73
461,52	20437,73
461,721	20389,86
461,922	20224,02
462,124	19898,55
462,325	20958,88
462,526	20699,11
462,727	19912,97
462,928	20793,64
463,129	19874,71
463,331	20982,52
463,532	20268,88
463,733	20416,5
463,934	20078,21
464,135	21427,76
464,336	19743,32
464,537	21933,7
464,738	21125,92
464,939	20512,84
465,14	20940,46
465,341	22612,08
465,542	21691,74
465,743	21473,03
465,944	20711,52
466,145	22093,33
466,346	22278,6
466,547	21524,9
466,748	21349,25
466,949	22595,65
467,15	22459,26
467,351	21854,58
467,552	23083,76
467,753	22506,93
467,953	22978,21
468,154	22822,38
468,355	22184,26
468,556	22888,48
468,757	23747,52
468,958	23675,02
469,158	23179,1
469,359	22884,87
469,56	22937,15
469,761	22713,02
469,962	24330,17
470,162	24228,22
470,363	24178,55
470,564	24802,85
470,764	24469,97
470,965	24904,2
471,166	24849,12
471,366	26651,33
471,567	25875,81
471,768	26499,11
471,968	26144
472,169	25785,08
472,37	25102,89
472,57	25857,58
472,771	26528,36
472,971	27063,73
473,172	26809,76
473,373	27082,16
473,573	26634,31
473,774	27388,6
473,974	28351,2
474,175	29648,48
474,375	28634,41
474,576	28137,89
474,776	28515,84
474,977	28961,08
475,177	28517,64
475,377	27890,93
475,578	27953,82
475,778	28805,46
475,979	27491,15
476,179	28951,47
476,379	29543,53
476,58	29444,58
476,78	29326,81
476,981	29787,08
477,181	29939,9
477,381	29884,62
477,582	30003,39
477,782	31251,8
477,982	30636,71
478,182	31167,88
478,383	30708,82
478,583	31688,24
478,783	31852,27
478,983	32721,33
479,184	31834,45
479,384	32912,21
479,584	31965,84
479,784	32501,81
479,984	32234,03
480,184	32717,93
480,385	33046,6
480,585	34463,66
480,785	33553,74
480,985	34358,31
481,185	33876,01
481,385	34666,55
481,585	33584,58
481,785	34942,35
481,985	34782,52
482,185	35531,01
482,385	34165,03
482,585	34548,78
482,785	35063,73
482,985	34576,02
483,185	34381,34
483,385	34875,66
483,585	34664,55
483,785	34867,24
483,985	34208,69
484,185	35331,32
484,385	34549,98
484,585	34407,98
484,785	33114,9
484,985	32777,01
485,185	31498,56
485,384	31275,84
485,584	30780,92
485,784	30790,33
485,984	30961,38
486,184	31917,17
486,383	32463,16
486,583	32780,42
486,783	33022,97
486,983	33963,13
487,183	34340,28
487,382	34873,05
487,582	35137,64
487,782	35368,17
487,981	34867,64
488,181	35475,73
488,381	35545,23
488,58	36088,41
488,78	36217,4
488,98	37104,89
489,179	37359,06
489,379	38218,7
489,579	37497,66
489,778	38510,93
489,978	37650,68
490,177	38029,63
490,377	38334,07
490,576	37597
490,776	37104,69
490,975	37521,89
491,175	36580,73
491,374	36646,82
491,574	36351,4
491,773	36204,18
491,973	36748,37
492,172	37867,19
492,372	37456
492,571	37894,83
492,771	37671,91
492,97	38037,64
493,169	37449,99
493,369	39070,34
493,568	38559,2
493,767	39130,22
493,967	38987,02
494,166	39799,99
494,365	39104,39
494,565	39026,87
494,764	39013,25
494,963	39274,63
495,163	39201,33
495,362	39195,12
495,561	38687,38
495,76	40199,37
495,959	39199,12
496,159	39379,99
496,358	39343,53
496,557	39939,2
496,756	39696,04
496,955	39768,35
497,155	38890,88
497,354	38759,89
497,553	37705,76
497,752	38583,43
497,951	38373,13
498,15	38557,79
498,349	37838,35
498,548	38827,58
498,747	38959,78
498,946	38842,61
499,145	38236,13
499,344	38305,83
499,543	37805,9
499,742	37915,66
499,941	37185,4
500,14	37404,12
500,339	36923,42
500,538	37187,61
500,737	36574,52
500,936	36606,57
501,135	36609,97
501,334	37303,38
501,533	36872,95
501,732	37572,97
501,931	37447,58
502,129	38003,99
502,328	38036,44
502,527	38184,65
502,726	37160,57
502,925	37515,68
503,123	37421,35
503,322	37550,33
503,521	36851,52
503,72	37266,12
503,919	37639,06
504,117	37882,21
504,316	37818,72
504,515	38268,17
504,713	38990,42
504,912	39051,51
505,111	38971,79
505,309	39794,59
505,508	39471,92
505,707	39853,27
505,905	38956,77
506,104	39419,04
506,302	39156,66
506,501	39376,38
506,7	38647,52
506,898	38958,17
507,097	38310,23
507,295	38480,88
507,494	37965,54
507,692	38500,71
507,891	38717,83
508,089	39451,69
508,288	39494,15
508,486	39916,76
508,685	39308,08
508,883	39745,32
509,082	39488,74
509,28	39721,88
509,478	39272,03
509,677	39856,88
509,875	39973,05
510,073	40481,78
510,272	39971,64
510,47	40643,22
510,669	40289,9
510,867	41172,98
511,065	40500,61
511,263	41245,09
511,462	40901,59
511,66	40692,89
511,858	40473,97
512,056	40670,46
512,255	40197,37
512,453	40654,03
512,651	39998,28
512,849	40254,65
513,048	39541,62
513,246	39843,46
513,444	39869,29
513,642	39863,49
513,84	39673,41
514,038	40597,95
514,236	40191,36
514,435	40654,63
514,633	40465,96
514,831	41024,77
515,029	41190,21
515,227	41046,2
515,425	40006,29
515,623	39798,99
515,821	38905,7
516,019	37972,95
516,217	36832,09
516,415	37103,69
516,613	36733,75
516,811	37330,21
517,009	37405,72
517,207	37959,13
517,405	37672,91
517,602	37962,93
517,8	37438,37
517,998	37850,77
518,196	38726,44
518,394	39231,97
518,592	39246,99
518,79	40185,35
518,987	40188,96
519,185	41046,2
519,383	40798,84
519,581	41435,97
519,779	40562,9
519,976	41734,4
520,174	41294,16
520,372	41979,15
520,57	41351,44
520,767	42239,13
520,965	41687,13
521,163	42148,8
521,36	42134,38
521,558	41867,79
521,756	41168,38
521,953	41435,77
522,151	40682,67
522,349	40831,29
522,546	40890,58
522,744	41277,14
522,941	41182,4
523,139	42079,7
523,336	42458,45
523,534	42936,74
523,731	42303,22
523,929	42606,66
524,126	42231,32
524,324	42317,84
524,521	42468,46
524,719	42364,31
524,916	41892,03
525,114	41333,02
525,311	40551,88
525,509	40567,71
525,706	39117,4
525,903	38619,88
526,101	38116,55
526,298	38052,26
526,496	37613,02
526,693	38527,35
526,89	38166,83
527,088	38849,42
527,285	38909,5
527,482	39514,38
527,679	39356,95
527,877	40217,6
528,074	40198,17
528,271	41030,98
528,468	40984,91
528,666	41005,54
528,863	40427,7
529,06	40899,79
529,257	40146,9
529,454	40211,99
529,652	40228,82
529,849	40901,19
530,046	40514,43
530,243	41165,37
530,44	40648,02
530,637	40670,66
530,834	40526,85
531,031	40167,73
531,228	39983,66
531,425	39971,04
531,622	38994,23
531,819	38942,55
532,016	38069,69
532,213	37813,92
532,41	38226,71
532,607	38516,93
532,804	38415,59
533,001	38453,44
533,198	38439,62
533,395	38632,3
533,592	37770,45
533,789	38899,09
533,986	38450,64
534,183	39335,52
534,38	39068,33
534,576	39816,22
534,773	39241,79
534,97	39528,4
535,167	39226,76
535,364	39939
535,561	38996,23
535,757	39152,86
535,954	38294,81
536,151	38228,92
536,348	37894,43
536,544	37987,17
536,741	37607,22
536,938	38404,37
537,134	37726,19
537,331	38637,91
537,528	37754,03
537,724	38439,02
537,921	37461,2
538,118	38508,92
538,314	37340,23
538,511	37611,22
538,707	37028,98
538,904	37330,61
539,101	36430,71
539,297	36652,63
539,494	35926,78
539,69	36022,32
539,887	35718,08
540,083	36138,49
540,28	35920,17
540,476	36005,29
540,673	35574,07
540,869	36743,56
541,066	36115,05
541,262	36501,61
541,458	36394,26
541,655	36399,26
541,851	36298,32
542,048	36457,35
542,244	36286,9
542,44	36231,62
542,637	35844,06
542,833	36714,32
543,029	36623,79
543,226	36886,77
543,422	36530,66
543,618	36787,23
543,814	36419,09
544,011	36693,29
544,207	36078,4
544,403	36383,44
544,599	36479,78
544,796	36688,28
544,992	36398,66
545,188	36490,8
545,384	36275,49
545,58	36339,78
545,776	36260,86
545,972	36449,54
546,169	36031,93
546,365	36179,35
546,561	35835,45
546,757	36100,63
546,953	35596,7
547,149	35826,63
547,345	35187,71
547,541	35562,25
547,737	35108,99
547,933	35556,44
548,129	35282,45
548,325	36069,59
548,521	35402,62
548,717	36153,51
548,913	35353,95
549,109	35696,65
549,305	35378,18
549,501	35565,06
549,697	35267,22
549,892	35495,96
550,088	34877,06
550,284	35359,36
550,48	35139,84
550,676	35586,09
550,872	34635,51
551,067	35461,3
551,263	34889,48
551,459	35433,87
551,655	34901,89
551,85	35177,49
552,046	34885,07
552,242	34672,76
552,438	34385,35
552,633	34674,76
552,829	34627,5
553,025	35091,77
553,22	34801,35
553,416	34792,54
553,612	34543,57
553,807	35140,04
554,003	35046,7
554,198	35101,38
554,394	34776,91
554,59	35327,71
554,785	34502,52
554,981	35184,9
555,176	34594,65
555,372	34673,16
555,567	34261,17
555,763	34467,06
555,958	33866,99
556,154	33861,19
556,349	33861,39
556,545	33646,27
556,74	33431,56
556,936	33781,27
557,131	33431,16
557,326	33348,84
557,522	33344,44
557,717	33155,76
557,912	32616,78
558,108	32772,81
558,303	32307,53
558,498	32835,5
558,694	32395,86
558,889	32399,87
559,084	32461,76
559,28	32733,35
559,475	32471,57
559,67	32822,88
559,865	32930,64
560,061	33114,1
560,256	33248,1
560,451	33117,31
560,646	32643,82
560,841	33200,03
561,037	32682,88
561,232	32844,71
561,427	32700,5
561,622	33072,24
561,817	32532,06
562,012	32946,46
562,207	33105,69
562,402	33181
562,597	32674,87
562,792	32759,59
562,987	32828,89
563,182	32711,52
563,377	32417,49
563,572	33227,67
563,767	32329,36
563,962	32619,59
564,157	32380,84
564,352	32415,49
564,547	32214
564,742	32297,52
564,937	31796,19
565,132	32027,13
565,327	31561,65
565,522	31704,66
565,716	31397,21
565,911	32073,99
566,106	31697,25
566,301	32157,92
566,496	31571,47
566,691	32266,47
566,885	32065,78
567,08	32068,99
567,275	31398,62
567,47	31857,48
567,664	31095,58
567,859	31480,33
568,054	31109,2
568,248	31484,54
568,443	31289,86
568,638	31462,51
568,832	31072,14
569,027	31265,22
569,222	30888,08
569,416	30863,24
569,611	30763,7
569,805	30714,82
570	30428,01
570,195	30008,8
570,389	30286,8
570,584	30122,17
570,778	29973,15
570,973	30868,65
571,167	30212,9
571,362	30832,8
571,556	30622,69
571,751	31100,18
571,945	30655,34
572,139	31041,1
572,334	30847,62
572,528	31002,64
572,723	30711,42
572,917	31219,76
573,111	30920,52
573,306	30871,85
573,5	30949,76
573,694	30633,91
573,889	30546,38
574,083	30978,01
574,277	30202,48
574,472	30229,52
574,666	29946,11
574,86	30335,27
575,054	29969,74
575,249	30563,81
575,443	29856,98
575,637	30119,96
575,831	29921,07
576,025	30182,05
576,219	29741,41
576,414	30235,53
576,608	29964,94
576,802	30296,62
576,996	29704,96
577,19	29817,12
577,384	29667,91
577,578	29577,58
577,772	29094,88
577,966	29790,89
578,16	29190,01
578,354	29811,51
578,548	29423,35
578,742	29732,8
578,936	29475,03
579,13	30041,85
579,324	29746,22
579,518	30129,38
579,712	29652,68
579,906	30150,81
580,1	29743,42
580,294	30371,13
580,488	29841,36
580,682	30295,22
580,875	30007,8
581,069	30285
581,263	30238,33
581,457	30503,72
581,651	30375,73
581,845	30626,7
582,038	30185,66
582,232	30822,98
582,426	30002,19
582,62	30823,78
582,813	30358,91
583,007	30755,48
583,201	30001,19
583,394	30550,79
583,588	30387,35
583,782	30511,53
583,975	30242,74
584,169	30799,55
584,363	30198,68
584,556	30245,14
584,75	29748,82
584,943	29825,94
585,137	29520,89
585,33	29505,27
585,524	29203,23
585,718	29874,81
585,911	29280,34
586,105	29818,73
586,298	29386,7
586,491	29887,02
586,685	29691,54
586,878	29662,3
587,072	29261,32
587,265	29277,74
587,459	28662,25
587,652	28937,45
587,845	27794,39
588,039	27813,82
588,232	27028,08
588,426	26737,46
588,619	25935,3
588,812	25944,11
589,005	25732,6
589,199	26189,46
589,392	26042,05
589,585	26655,34
589,779	26536,57
589,972	26917,32
590,165	26857,03
590,358	27371,58
590,551	27045,51
590,745	27265,02
590,938	27151,46
591,131	27430,86
591,324	26261,97
591,517	27602,31
591,71	27334,92
591,904	27720,88
592,097	27480,14
592,29	27580,88
592,483	27269,03
592,676	27702,26
592,869	27059,73
593,062	27428,46
593,255	26991,23
593,448	27295,67
593,641	26803,96
593,834	27055,52
594,027	26770,51
594,22	27019,67
594,413	26599,06
594,606	26987,02
594,799	26619,49
594,992	27130,63
595,184	26726,44
595,377	26870,65
595,57	26912,31
595,763	27359,76
595,956	26742,27
596,149	27183,1
596,341	27132,83
596,534	27204,14
596,727	26913,51
596,92	27092,37
597,113	26928,34
597,305	26775,31
597,498	26573,02
597,691	26879,26
597,883	26563,61
598,076	26668,16
598,269	26479,28
598,462	26895,09
598,654	26658,34
598,847	26814,57
599,039	26666,16
599,232	26827,39
599,425	26446,04
599,617	26463,26
599,81	26595,65
600,002	26523,75
600,195	26065,89
600,387	26480,69
600,58	26178,45
600,772	26157,42
600,965	25939,9
601,157	26172,04
601,35	25876,01
601,542	26014,21
601,735	25738,21
601,927	26228,12
602,12	25898,44
602,312	26301,83
602,504	26073,3
602,697	26088,52
602,889	26161,02
603,082	26301,83
603,274	26270,38
603,466	26465,46
603,659	26115,76
603,851	26349,7
604,043	26119,76
604,235	26559,8
604,428	25759,04
604,62	26260,57
604,812	26073,3
605,004	26325,06
605,197	25916,67
605,389	26233,33
605,581	25750,43
605,773	26043,65
605,965	25680,93
606,157	26067,29
606,349	25703,56
606,542	25911,86
606,734	25515,49
606,926	25837,35
607,118	25391,31
607,31	25572,17
607,502	25114,91
607,694	25500,67
607,886	24946,26
608,078	25530,31
608,27	24979,71
608,462	25242,29
608,654	24862,74
608,846	25364,87
609,038	24923,83
609,23	25092,07
609,422	24869,95
609,614	24867,55
609,805	24676,47
609,997	24714,53
610,189	24997,74
610,381	25202,83
610,573	24793,64
610,765	25163,38
610,957	24705,51
611,148	24768,6
611,34	24539,27
611,532	25054,02
611,724	24728,75
611,915	24846,52
612,107	24618,39
612,299	25119,11
612,491	24499,21
612,682	24658,65
612,874	24429,71
613,066	24667,46
613,257	24255,86
613,449	24678,87
613,64	24546,88
613,832	24487,2
614,024	24699,1
614,215	24634,01
614,407	24693,7
614,598	24737,76
614,79	24679,68
614,981	24811,47
615,173	24468,77
615,364	24779,82
615,556	24365,02
615,747	24649,23
615,939	23986,47
616,13	24478,98
616,322	24465,16
616,513	24608,17
616,705	24397,67
616,896	25047,81
617,087	24679,48
617,279	25258,31
617,47	24969,7
617,661	25532,11
617,853	25083,86
618,044	25488,85
618,235	25414,94
618,427	25416,74
618,618	25359,86
618,809	25665,71
619	25352,85
619,192	25686,74
619,383	25343,64
619,574	25908,66
619,765	25623,44
619,957	26132,18
620,148	25571,97
620,339	26117,36
620,53	25647,48
620,721	25802,1
620,912	25403,93
621,103	26067,69
621,294	25541,12
621,485	25891,03
621,677	25350,25
621,868	25660,5
622,059	25138,14
622,25	25394,51
622,441	25075,65
622,632	25120,72
622,823	24919,82
623,014	24951,07
623,205	24832,9
623,395	24715,33
623,586	24450,74
623,777	24752,98
623,968	24294,92
624,159	24476,18
624,35	24252,66
624,541	24320,96
624,732	24094,43
624,923	24220,21
625,113	23969,45
625,304	23881,52
625,495	23862,09
625,686	24069,79
625,877	24003,7
626,067	24020,52
626,258	24005,1
626,449	23926,98
626,639	23458,11
626,83	23478,13
627,021	22952,17
627,211	22909,11
627,402	22638,72
627,593	22713,83
627,783	22643,12
627,974	22717,03
628,165	22509,33
628,355	22593,65
628,546	22212,9
628,736	22522,15
628,927	22072,3
629,117	22391,56
629,308	22152,41
629,498	22327,47
629,689	21898,24
629,879	22373,93
630,07	22291,41
630,26	22255,36
630,451	22003,6
630,641	22249,95
630,832	21764,25
631,022	22014,01
631,212	21676,92
631,403	21818,53
631,593	21536,72
631,784	22151,21
631,974	21750,63
632,164	22161,43
632,355	21877,81
632,545	22194,47
632,735	21850,57
632,925	21828,34
633,116	21616,64
633,306	21673,92
633,496	21530,31
633,686	21887,43
633,876	21579,98
634,067	21748,63
634,257	21636,66
634,447	21873,21
634,637	21804,91
634,827	21777,27
635,017	21379,09
635,208	21602,21
635,398	21396,32
635,588	21806,91
635,778	21305,99
635,968	21745,22
636,158	21404,13
636,348	21754,03
636,538	21499,87
636,728	21850,57
636,918	21393,71
637,108	21811,92
637,298	21522,9
637,488	21693,15
637,678	21480,04
637,868	21691,14
638,057	21497,66
638,247	21579,38
638,437	21379,49
638,627	21477,43
638,817	20955,88
639,007	21436,37
639,197	20980,71
639,386	21113,91
639,576	20699,91
639,766	20897,79
639,956	20728,95
640,145	20908,41
640,335	20597,16
640,525	21014,36
640,715	20489,6
640,904	20765,2
641,094	20315,55
641,284	20748,58
641,473	20610,98
641,663	20633,41
641,853	20571,12
642,042	20747,78
642,232	20277,09
642,421	20619,99
642,611	20397,47
642,801	20590,95
642,99	20475,78
643,18	20774,21
643,369	20373,83
643,559	20551,49
643,748	20402,07
643,938	20349,2
644,127	20131,88
644,317	20391,06
644,506	19953,42
644,695	20045,56
644,885	20128,28
645,074	19947,22
645,264	19730,7
645,453	19736,11
645,642	19698,25
645,832	19696,45
646,021	19393,81
646,21	19625,95
646,4	19364,37
646,589	19334,33
646,778	19035,09
646,967	19271,84
647,157	18793,74
647,346	19055,12
647,535	18760,9
647,724	18880,87
647,913	18798,75
648,103	18921,53
648,292	18539,58
648,481	18678,58
648,67	18447,04
648,859	18451,25
649,048	18406,18
649,237	18495,11
649,427	18400,97
649,616	18754,29
649,805	18438,03
649,994	18914,52
650,183	18684,39
650,372	18957,58
650,561	18436,83
650,75	18672,57
650,939	18308,24
651,128	18493,31
651,317	18254,76
651,506	18600,46
651,694	18358,71
651,883	18626,5
652,072	18481,49
652,261	18724,24
652,45	18376,74
652,639	18738,66
652,828	18512,14
653,016	18627,5
653,205	18397,37
653,394	18634,11
653,583	18427,61
653,772	18560,41
653,96	18226,12
654,149	18259,97
654,338	17784,88
654,527	17969,75
654,715	17575,18
654,904	17566,16
655,093	16781,23
655,281	16548,49
655,47	15979,06
655,658	15879,52
655,847	15763,15
656,036	15867,1
656,224	15773,77
656,413	16211,6
656,601	16130,68
656,79	16604,37
656,978	16349,2
657,167	16874,36
657,355	16748,98
657,544	17348,45
657,732	17112,91
657,921	17293,77
658,109	17300,78
658,298	17581,39
658,486	17220,26
658,675	17505,48
658,863	17368,68
659,051	17591,6
659,24	17343,24
659,428	17788,69
659,616	17550,74
659,805	17616,24
659,993	17318,2
660,181	17785,48
660,37	17401,53
660,558	17645,48
660,746	17518,9
660,934	17721,79
661,123	17496,46
661,311	17890,43
661,499	17563,76
661,687	17712,98
661,875	17382,7
662,064	17497,46
662,252	17375,69
662,44	17314,6
662,628	17307,79
662,816	17346,25
663,004	17328,62
663,192	17278,15
663,38	17129,93
663,568	17129,93
663,756	17178,4
663,944	17242,9
664,132	17076,65
664,32	17258,92
664,508	16942,86
664,696	17164,98
664,884	16801,26
665,072	17147,36
665,26	16702,71
665,448	17165,78
665,636	16945,86
665,824	16995,54
666,012	16751,58
666,199	16971,9
666,387	16584,94
666,575	16703,51
666,763	16670,87
666,951	16739,57
667,139	16582,14
667,326	16660,85
667,514	16372,43
667,702	16678,28
667,889	16429,72
668,077	16602,37
668,265	16429,32
668,453	16573,53
668,64	16528,66
668,828	16520,05
669,016	16170,74
669,203	16472,38
669,391	16143,1
669,578	16436,13
669,766	16120,47
669,954	16277,7
670,141	16137,09
670,329	16157,12
670,516	16052,17
670,704	15966,85
670,891	15692,05
671,079	15961,84
671,266	15703,46
671,454	15857,89
671,641	15662,4
671,828	15843,07
672,016	15679,03
672,203	15802,61
672,391	15495,36
672,578	15831,25
672,765	15427,06
672,953	15841,06
673,14	15492,96
673,327	15581,49
673,515	15621,34
673,702	15654,59
673,889	15329,52
674,077	15620,34
674,264	15293,67
674,451	15439,48
674,638	15308,29
674,825	15460,31
675,013	15070,75
675,2	15360,57
675,387	15084,37
675,574	15176,7
675,761	15061,13
675,948	15118,22
676,136	15092,18
676,323	15230,18
676,51	14873,66
676,697	15224,37
676,884	15070,35
677,071	15111,61
677,258	14843,22
677,445	14984,02
677,632	14770,31
677,819	14924,33
678,006	14696
678,193	14908,11
678,38	14795,55
678,567	14842,82
678,754	14729,85
678,94	14763,9
679,127	14622,5
679,314	14774,12
679,501	14565,61
679,688	14692,8
679,875	14405,58
680,062	14740,67
680,248	14421,61
680,435	14514,14
680,622	14421,61
680,809	14615,49
680,995	14277
681,182	14556,4
681,369	14365,92
681,556	14476,89
681,742	14198,88
681,929	14414,19
682,116	14253,56
682,302	14404,78
682,489	14090,13
682,675	14245,35
682,862	13998,19
683,049	14100,34
683,235	13956,93
683,422	14034,04
683,608	13756,64
683,795	13887,63
683,981	13674,92
684,168	13930,49
684,354	13627,05
684,541	13870,41
684,727	13693,75
684,914	13690,95
685,1	13455,41
685,287	13440,78
685,473	13199,63
685,659	13053,82
685,846	12402,68
686,032	12093,03
686,218	11289,87
686,405	10969,2
686,591	10495,31
686,777	10418,4
686,964	10203,49
687,15	10341,09
687,336	10260,37
687,522	10473,28
687,709	10431,42
687,895	10538,38
688,081	10425,41
688,267	10459,66
688,454	10327,07
688,64	10400,58
688,826	10399,78
689,012	10575,83
689,198	10513,14
689,384	10702,41
689,57	10613,89
689,756	10798,55
689,942	10833,4
690,128	10991,03
690,314	10838,81
690,501	11220,57
690,687	11267,43
690,873	11427,27
691,058	11242,2
691,244	11525,61
691,43	11391,61
691,616	11602,52
691,802	11518,6
691,988	11637,97
692,174	11554,85
692,36	11642,78
692,546	11551,85
692,732	11526,01
692,917	11411,84
693,103	11483,15
693,289	11363,57
693,475	11503,18
693,661	11174,3
693,846	11459,11
694,032	11226,77
694,218	11406,23
694,404	11365,98
694,589	11334,53
694,775	11296,88
694,961	11462,52
695,146	11285,46
695,332	11484,95
695,518	11409,64
695,703	11612,53
695,889	11534,42
696,074	11797
696,26	11677,43
696,446	11904,76
696,631	11558,86
696,817	11818,83
697,002	11715,88
697,188	11790,19
697,373	11498,17
697,559	11716,88
697,744	11511,59
697,93	11656,4
698,115	11415,25
698,3	11522,6
698,486	11305,69
698,671	11497,97
698,857	11178,91
699,042	11368,18
699,227	11082,57
699,413	11278,85
699,598	11066,54
699,783	11217,96
699,969	10868,25
700,154	11011,26
700,339	10886,28
700,524	11027,29
700,71	10768,91
700,895	10954,18
701,08	10767,91
701,265	11027,29
701,45	10770,91
701,636	10942,56
701,821	10682,39
702,006	10845,02
702,191	10756,69
702,376	10922,53
702,561	10814,38
702,746	10915,72
702,931	10759,5
703,116	10976,21
703,301	10780,93
703,486	11015,67
703,671	10963,99
703,856	11062,54
704,041	10972,41
704,226	10985,62
704,411	10855,84
704,596	11111,01
704,781	10856,84
704,966	10998,64
705,151	10833,8
705,336	10920,73
705,521	10800,96
705,706	11073,55
705,89	10814,98
706,075	10929,14
706,26	10798,95
706,445	10890,29
706,63	10837,41
706,814	10883,68
706,999	10859,04
707,184	11018,27
707,368	10773,12
707,553	10942,56
707,738	10691,4
707,923	10881,67
708,107	10680,98
708,292	10912,12
708,476	10788,74
708,661	10724,25
708,846	10675,17
709,03	10845,22
709,215	10769,91
709,399	10890,69
709,584	10738,87
709,768	10907,51
709,953	10698,61
710,137	10685,19
710,322	10675,98
710,506	10714,43
710,691	10656,75
710,875	10781,73
711,06	10441,04
711,244	10626,9
711,429	10406,99
711,613	10635,72
711,797	10466,67
711,982	10492,91
712,166	10362,92
712,35	10531,97
712,535	10286,01
712,719	10330,68
712,903	10322,06
713,088	10430,82
713,272	10238,74
713,456	10382,35
713,64	10279
713,824	10209,5
714,009	9962,74
714,193	10133,79
714,377	9838,16
714,561	9884,23
714,745	9922,48
714,929	9940,11
715,113	9809,32
715,298	9778,88
715,482	9590,6
715,666	9553,75
715,85	9268,74
716,034	9191,42
716,218	8801,06
716,402	8804,66
716,586	8421,71
716,77	8420,71
716,954	8205,39
717,138	8012,92
717,322	7766,36
717,506	7843,07
717,689	7517,4
717,873	7522
718,057	7188,12
718,241	7129,64
718,425	6962,19
718,609	6992,04
718,793	6895,9
718,976	6799,16
719,16	6699,01
719,344	6789,74
719,528	6656,15
719,711	6715,23
719,895	6709,63
720,079	6880,87
720,263	6859,24
720,446	7218,76
720,63	7250,41
720,814	7555,25
720,997	7551,05
721,181	7755,34
721,364	7652,79
721,548	7856,49
721,732	7867,91
721,915	7979,07
722,099	7795
722,282	7928,79
722,466	7633,37
722,649	7767,16
722,833	7457,11
723,016	7431,47
723,2	7356,96
723,383	7370,18
723,567	7278,25
723,75	7272,44
723,934	7241,4
724,117	7235,19
724,3	7153,47
724,484	7137,65
724,667	7093,38
724,85	7175,5
725,034	6977,21
725,217	7136,04
725,4	7056,13
725,584	7109,61
725,767	7011,26
725,95	7193,93
726,133	7090,18
726,317	7200,54
726,5	7099,79
726,683	7096,19
726,866	6950,78
727,049	7033,3
727,232	6948,97
727,416	7061,14
727,599	7019,88
727,782	7148,86
727,965	6985,23
728,148	7085,17
728,331	7003,05
728,514	6955,38
728,697	6897,5
728,88	7050,72
729,063	6998,65
729,246	7191,93
729,429	6978,62
729,612	7167,09
729,795	6984,22
729,978	7017,07
730,161	6904,51
730,344	7096,19
730,526	7003,25
730,709	7092,58
730,892	6999,25
731,075	7086,57
731,258	7012,27
731,441	7212,56
731,623	7296,48
731,806	7302,09
731,989	7270,64
732,172	7457,91
732,354	7394,02
732,537	7495,77
732,72	7523,01
732,903	7701,26
733,085	7617,14
733,268	7710,88
733,451	7726,7
733,633	7959,64
733,816	7652,59
733,998	7806,42
734,181	7787,99
734,364	7852,68
734,546	7767,76
734,729	7817,23
734,911	7720,49
735,094	7648,39
735,276	7641,78
735,459	7641,38
735,641	7617,14
735,824	7633,17
736,006	7541,63
736,188	7592,11
736,371	7483,35
736,553	7624,95
736,736	7509,79
736,918	7625,55
737,1	7619,75
737,283	7664,41
737,465	7669,42
737,647	7614,54
737,83	7531,22
738,012	7476,94
738,194	7440,09
738,376	7546,04
738,559	7517,4
738,741	7497,57
738,923	7418,65
739,105	7611,13
739,287	7481,95
739,469	7560,86
739,652	7487,35
739,834	7496,37
740,016	7378
740,198	7546,24
740,38	7295,48
740,562	7436,28
740,744	7363,77
740,926	7419,86
741,108	7271,44
741,29	7338,74
741,472	7338,94
741,654	7362,57
741,836	7329,12
742,018	7432,07
742,2	7235,79
742,382	7399,83
742,564	7402,03
742,746	7389,41
742,928	7315,5
743,109	7414,45
743,291	7297,48
743,473	7364,58
743,655	7248,81
743,837	7359,97
744,019	7125,83
744,2	7319,71
744,382	7220,17
744,564	7267,84
744,746	7178,31
744,927	7250,01
745,109	7136,45
745,291	7263,63
745,472	7104,2
745,654	7163,68
745,836	7034,3
746,017	7106,8
746,199	6964,2
746,38	7125,63
746,562	6974,81
746,744	7124,23
746,925	6982,82
747,107	7063,94
747,288	6938,16
747,47	6923,54
747,651	6837,01
747,833	6990,43
748,014	6802,76
748,195	6821,99
748,377	6732,66
748,558	6821,39
748,74	6615,89
748,921	6751,89
749,102	6664,96
749,284	6727,25
749,465	6605,88
749,646	6717,44
749,828	6628,11
750,009	6639,93
750,19	6526,56
750,372	6629,31
750,553	6504,53
750,734	6567,02
750,915	6430,22
751,096	6606,48
751,278	6498,72
751,459	6521,95
751,64	6414,2
751,821	6574,23
752,002	6467,88
752,183	6585,25
752,364	6481,1
752,546	6488,71
752,727	6392,77
752,908	6519,35
753,089	6429,02
753,27	6470,48
753,451	6491,71
753,632	6520,15
753,813	6475,89
753,994	6541,58
754,175	6380,35
754,356	6560,81
754,536	6394,57
754,717	6533,37
754,898	6384,56
755,079	6425,21
755,26	6324,67
755,441	6561,21
755,622	6391,57
755,802	6440,24
755,983	6436,43
756,164	6515,75
756,345	6349,9
756,526	6496,32
756,706	6378,55
756,887	6500,32
757,068	6438,23
757,248	6610,68
757,429	6469,48
757,61	6527,76
757,79	6494,11
757,971	6512,74
758,152	6395,37
758,332	6390,96
758,513	6101,75
758,693	5786,49
758,874	5340,24
759,055	4911,42
759,235	4236,04
759,416	3784,19
759,596	3185,92
759,777	2843,62
759,957	2388,96
760,137	2102,75
760,318	1838,36
760,498	1704,37
760,679	1652,5
760,859	1804,32
761,039	1922,29
761,22	2086,52
761,4	2229,53
761,581	2407,99
761,761	2445,85
761,941	2400,58
762,121	2348,9
762,302	2331,88
762,482	2342,3
762,662	2335,29
762,842	2340,29
763,023	2392,57
763,203	2435,43
763,383	2418,61
763,563	2472,48
763,743	2608,28
763,923	2686,39
764,104	2894,3
764,284	2984,03
764,464	3194,33
764,644	3318,11
764,824	3593,11
765,004	3651,79
765,184	3919,58
765,364	4000,5
765,544	4270,09
765,724	4362,02
765,904	4684,29
766,084	4774,62
766,264	4931,65
766,444	5087,68
766,624	5312,6
766,804	5367,48
766,983	5622,85
767,163	5723
767,343	5810,52
767,523	5854,59
767,703	6081,52
767,883	6014,02
768,062	6210,1
768,242	6129,39
768,422	6252,96
768,602	6142
768,781	6396,37
768,961	6126,38
769,141	6321,46
769,32	6254,97
769,5	6331,28
769,68	6300,23
769,859	6375,34
770,039	6290,42
770,219	6375,14
770,398	6326,07
770,578	6373,74
770,757	6272,59
770,937	6235,14
771,116	6113,96
771,296	6255,97
771,475	6140,2
771,655	6235,94
771,834	6150,42
772,014	6190,27
772,193	6111,36
772,373	6155,02
772,552	6006,21
772,731	6085,32
772,911	6019,63
773,09	6070,7
773,269	5975,76
773,449	5987,78
773,628	5916,88
773,807	5967,35
773,987	5820,74
774,166	5894,04
774,345	5759,45
774,524	5807,12
774,704	5618,64
774,883	5751,84
775,062	5659,5
775,241	5642,88
775,42	5515,5
775,6	5672,72
775,779	5574,78
775,958	5610,63
776,137	5546,74
776,316	5616,44
776,495	5435,38
776,674	5576,18
776,853	5369,68
777,032	5458,41
777,211	5352,06
777,39	5409,34
777,569	5313,8
777,748	5329,83
777,927	5198,44
778,106	5284,16
778,285	5226,48
778,464	5221,07
778,643	5160,78
778,822	5202,44
779	5107,9
779,179	5118,72
779,358	5038
779,537	5063,24
779,716	5001,95
779,894	4991,74
780,073	4940,06
780,252	4894,8
780,431	4875,77
780,609	4976,91
780,788	4877,17
780,967	4837,31
781,145	4737,77
781,324	4886,38
781,503	4737,37
781,681	4835,11
781,86	4693,3
782,039	4732,96
782,217	4681,29
782,396	4682,29
782,574	4570,12
782,753	4630,21
782,931	4523,06
783,11	4563,32
783,288	4470,58
783,467	4472,18
783,645	4438,13
783,824	4490,41
784,002	4426,72
784,18	4444,54
784,359	4432,12
784,537	4424,71
784,716	4346
784,894	4411,49
785,072	4365,43
785,251	4387,66
785,429	4256,67
785,607	4347,2
785,785	4314,55
785,964	4253,87
786,142	4228,03
786,32	4241,25
786,498	4175,55
786,677	4138,7
786,855	4136,5
787,033	4147,31
787,211	4061,39
787,389	4120,47
787,567	3958,44
787,745	4035,15
787,923	4019,33
788,102	4014,12
788,28	3936,61
788,458	3946,42
788,636	3868,11
788,814	3861,1
788,992	3838,06
789,17	3796,2
789,348	3769,16
789,526	3791,8
789,703	3703,67
789,881	3768,76
790,059	3690,05
790,237	3705,47
790,415	3662,01
790,593	3694,46
790,771	3622,95
790,949	3640,58
791,126	3616,94
791,304	3649,99
791,482	3566,87
791,66	3547,64
791,837	3502,58
792,015	3536,43
792,193	3468,93
792,371	3457,71
792,548	3429,87
792,726	3471,13
792,904	3389,61
793,081	3482,75
793,259	3424,26
793,436	3490,16
793,614	3405,64
793,792	3494,57
793,969	3388,81
794,147	3395,82
794,324	3364,58
794,502	3406,04
794,679	3392,82
794,857	3370,19
795,034	3316,11
795,212	3300,88
795,389	3271,64
795,567	3273,04
795,744	3267,64
795,921	3267,84
796,099	3169,9
796,276	3203,34
796,453	3126,43
796,631	3240,8
796,808	3196,93
796,985	3157,28
797,163	3185,12
797,34	3190,32
797,517	3152,87
797,694	3215,76
797,872	3146,66
798,049	3172,3
798,226	3177,91
798,403	3119,22
798,58	3086,57
798,757	3139,85
798,935	3079,36
799,112	3118,42
799,289	3017,07
799,466	3062,34
799,643	2984,63
799,82	2996,64
799,997	2914,93
800,174	2953,58
800,351	2950,98
800,528	2941,36
800,705	2884,68
800,882	2919,13
801,059	2873,27
801,236	2903,11
801,413	2865,25
801,589	2946,17
801,766	2832,41
801,943	2872,06
802,12	2858,84
802,297	2810,57
802,474	2764,31
802,651	2802,56
802,827	2806,17
803,004	2774,12
803,181	2769,92
803,358	2771,32
803,534	2723,05
803,711	2765,51
803,888	2717,84
804,064	2738,27
804,241	2706,02
804,418	2703,82
804,594	2715,44
804,771	2675,98
804,947	2684,19
805,124	2776,12
805,301	2708,03
805,477	2724,25
805,654	2694,21
805,83	2697,01
806,007	2676,18
806,183	2661,56
806,36	2678,58
806,536	2698,81
806,712	2660,96
806,889	2605,08
807,065	2658,35
807,242	2612,09
807,418	2604,28
807,594	2617,89
807,771	2584,85
807,947	2571,03
808,123	2537,58
808,3	2585,05
808,476	2494,32
808,652	2503,33
808,829	2442,64
809,005	2452,66
809,181	2426,82
809,357	2382,35
809,533	2391,17
809,71	2381,35
809,886	2339,49
810,062	2297,03
810,238	2341,49
810,414	2326,87
810,59	2315,86
810,766	2359,72
810,942	2286,81
811,118	2290,42
811,294	2219,72
811,47	2253,37
811,646	2234,34
811,822	2246,96
811,998	2215,11
812,174	2236,74
812,35	2126,38
812,526	2136,4
812,702	2117,37
812,878	2099,94
813,054	2011,62
813,23	2058,48
813,405	1972,96
813,581	1964,95
813,757	1911,67
813,933	1867,21
814,109	1832,96
814,284	1831,15
814,46	1799,71
814,636	1815,73
814,812	1732,81
814,987	1740,62
815,163	1711,38
815,339	1763,26
815,514	1641,08
815,69	1628,66
815,866	1598,82
816,041	1600,02
816,217	1607,03
816,392	1576,79
816,568	1598,22
816,743	1640,08
816,919	1604,23
817,094	1644,68
817,27	1600,02
817,445	1596,41
817,621	1551,95
817,796	1550,15
817,972	1578,19
818,147	1634,07
818,322	1581,59
818,498	1614,24
818,673	1609,83
818,849	1619,85
819,024	1593,01
819,199	1606,43
819,375	1580,39
819,55	1610,03
819,725	1588
819,9	1703,77
820,076	1677,93
820,251	1736,42
820,426	1719,99
820,601	1784,69
820,776	1741,62
820,952	1725,8
821,127	1695,96
821,302	1712,38
821,477	1726,8
821,652	1655,9
821,827	1624,45
822,002	1520,1
822,177	1437,78
822,352	1376,7
822,527	1340,84
822,702	1335,44
822,877	1328,43
823,052	1389,71
823,227	1423,96
823,402	1470,43
823,577	1505,48
823,752	1560,56
823,927	1537,33
824,102	1594,21
824,277	1580,79
824,451	1646,09
824,626	1593,81
824,801	1661,71
824,976	1605,63
825,151	1626,66
825,325	1574,98
825,5	1582,59
825,675	1540,13
825,85	1627,66
826,024	1588
826,199	1617,44
826,374	1662,91
826,548	1600,22
826,723	1555,96
826,897	1574,18
827,072	1527,71
827,247	1462,22
827,421	1447,4
827,596	1500,48
827,77	1438,99
827,945	1448,8
828,119	1451,4
828,294	1451,2
828,468	1444,39
828,643	1427,77
828,817	1444,39
828,992	1462,62
829,166	1427,77
829,34	1471,63
829,515	1393,92
829,689	1408,74
829,864	1457,81
830,038	1404,54
830,212	1436,58
830,386	1414,55
830,561	1391,52
830,735	1462,02
830,909	1448,6
831,084	1424,57
831,258	1423,76
831,432	1428,37
831,606	1380,3
831,78	1394,12
831,954	1391,72
832,129	1396,52
832,303	1326,22
832,477	1427,17
832,651	1367,48
832,825	1402,33
832,999	1322,62
833,173	1360,67
833,347	1348,05
833,521	1369,08
833,695	1365,48
833,869	1446,4
834,043	1364,68
834,217	1398,13
834,391	1395,72
834,565	1404,94
834,739	1385,71
834,913	1422,76
835,086	1431,78
835,26	1414,75
835,434	1369,28
835,608	1386,31
835,782	1399,73
835,956	1406,94
836,129	1379,9
836,303	1402,33
836,477	1359,67
836,651	1425,57
836,824	1442,19
836,998	1391,92
837,172	1346,05
837,345	1395,12
837,519	1355,06
837,693	1359,87
837,866	1343,25
838,04	1376,9
838,213	1324,82
838,387	1355,06
838,56	1335,64
838,734	1333,83
838,907	1329,83
839,081	1361,87
839,254	1328,63
839,428	1365,88
839,601	1326,02
839,775	1351,46
839,948	1316,41
840,122	1352,86
840,295	1302,59
840,468	1339,44
840,642	1336,84
840,815	1293,78
840,988	1342,45
841,162	1293,78
841,335	1303,59
841,508	1335,84
841,682	1340,24
841,855	1283,96
842,028	1322,82
842,201	1278,15
842,374	1301,79
842,548	1267,54
842,721	1305,39
842,894	1319,01
843,067	1279,55
843,24	1283,76
843,413	1230,48
843,586	1215,26
843,759	1274,55
843,932	1210,65
844,105	1252,52
844,278	1199,24
844,451	1239,7
844,624	1222,47
844,797	1238,9
844,97	1221,07
845,143	1234,69
845,316	1211,06
845,489	1207,45
845,662	1207,85
845,835	1190,23
846,008	1221,87
846,18	1211,66
846,353	1178,81
846,526	1182,21
846,699	1183,01
846,872	1183,22
847,044	1213,26
847,217	1145,36
847,39	1204,65
847,563	1163,99
847,735	1176,21
847,908	1139,55
848,081	1190,03
848,253	1154,77
848,426	1156,58
848,598	1140,95
848,771	1116,72
848,944	1068,25
849,116	1103,5
849,289	1028,59
849,461	1069,85
849,634	1037,4
849,806	1062,64
849,979	1006,16
850,151	1032,6
850,324	1067,05
850,496	1094,69
850,668	1052,23
850,841	1076,26
851,013	1079,46
851,186	1063,44
851,358	1045,22
851,53	1049,82
851,703	1020,18
851,875	1053,63
852,047	1042,61
852,219	1059,24
852,392	1020,98
852,564	1047,02
852,736	1030,19
852,908	1005,96
853,081	963,5
853,253	956,69
853,425	917,03
853,597	912,02
853,769	848,53
853,941	876,17
854,113	852,14
854,285	865,55
854,457	868,76
854,63	893,8
854,802	904,61
854,974	923,64
855,146	941,67
855,318	913,22
855,489	928,85
855,661	897,6
855,833	910,02
856,005	947,87
856,177	942,87
856,349	913,82
856,521	919,63
856,693	933,45
856,865	938,46
857,036	922,04
857,208	909,62
857,38	949,68
857,552	935,66
857,723	946,07
857,895	913,82
858,067	926,64
858,239	896,8
858,41	938,66
858,582	917,63
858,754	918,63
858,925	910,42
859,097	909,02
859,268	890,99
859,44	904,21
859,612	915,83
859,783	921,84
859,955	880,18
860,126	908,62
860,298	859,75
860,469	899,4
860,641	858,74
860,812	868,36
860,983	841,52
861,155	879,58
861,326	835,11
861,498	854,54
861,669	860,15
861,84	830,7
862,012	837,11
862,183	836,71
862,354	827,3
862,526	843,52
862,697	835,91
862,868	851,53
863,039	822,29
863,211	835,51
863,382	807,47
863,553	815,08
863,724	808,87
863,895	795,85
864,066	765,81
864,238	799,86
864,409	773,22
864,58	821,69
864,751	780,83
864,922	804,67
865,093	766,21
865,264	744,58
865,435	726,55
865,606	747,98
865,777	692,7
865,948	720,34
866,119	689,1
866,29	693,1
866,461	686,09
866,632	696,91
866,802	694,51
866,973	702,72
867,144	692,3
867,315	715,74
867,486	739,97
867,657	673,28
867,827	705,32
867,998	694,71
868,169	704,32
868,34	696,31
868,51	727,96
868,681	698,51
868,852	717,54
869,022	670,87
869,193	683,09
869,364	712,33
869,534	677,48
869,705	678,28
869,875	716,34
870,046	681,49
870,217	690,5
870,387	681,49
870,558	681,89
870,728	692,9
870,899	664,06
871,069	670,87
871,239	672,27
871,41	644,23
871,58	640,43
871,751	675,08
871,921	673,48
872,091	704,32
872,262	670,27
872,432	640,43
872,602	678,08
872,773	627,21
872,943	651,04
873,113	627,41
873,284	652,85
873,454	622
873,624	639,63
873,794	620,4
873,964	599,97
874,135	632,82
874,305	612,79
874,475	657,25
874,645	624,61
874,815	629,61
874,985	632,22
875,155	598,57
875,325	581,14
875,495	588,95
875,665	599,57
875,835	571,13
876,005	570,73
876,175	583,75
876,345	592,16
876,515	567,52
876,685	573,53
876,855	560,91
877,025	569,33
877,195	542,49
877,365	563,92
877,534	569,53
877,704	570,93
877,874	555,51
878,044	558,51
878,214	583,75
878,383	572,53
878,553	532,27
878,723	577,54
878,892	539,28
879,062	535,88
879,232	530,67
879,401	546,89
879,571	527,87
879,741	547,09
879,91	563,32
880,08	539,28
880,249	532,27
880,419	519,05
880,589	520,86
880,758	524,66
880,928	475,79
881,097	517,45
881,267	518,85
881,436	525,06
881,605	490,61
881,775	549,3
881,944	529,27
882,114	524,06
882,283	516,45
882,452	491,41
882,622	504,83
882,791	499,82
882,96	498,62
883,13	500,43
883,299	508,84
883,468	507,44
883,637	482
883,807	493,01
883,976	540,68
884,145	465,37
884,314	474,59
884,483	494,82
884,652	462,37
884,822	507,24
884,991	458,56
885,16	461,37
885,329	477,79
885,498	473,79
885,667	460,97
885,836	456,16
886,005	468,58
886,174	459,37
886,343	456,96
886,512	436,13
886,681	473,59
886,85	424,32
887,019	436,33
887,187	451,35
887,356	448,15
887,525	454,16
887,694	448,95
887,863	440,14
888,032	421,71
888,2	457,96
888,369	461,37
888,538	424,92
888,707	426,52
888,875	419,51
889,044	426,32
889,213	390,07
889,381	462,37
889,55	421,91
889,719	401,88
889,887	427,32
890,056	431,12
890,224	409,49
890,393	421,91
890,562	401,88
890,73	422,51
890,899	430,52
891,067	399,68
891,236	421,51
891,404	405,69
891,573	434,93
891,741	454,56
891,909	399,28
892,078	382,65
892,246	391,07
892,415	402,48
892,583	382,65
892,751	386,46
892,92	377,05
893,088	421,51
893,256	394,67
893,424	381,05
893,593	378,25
893,761	386,66
893,929	372,84
894,097	338,59
894,265	357,22
894,434	369,44
894,602	375,04
894,77	330,98
894,938	361,42
895,106	336,39
895,274	316,76
895,442	343,2
895,61	331,38
895,778	315,56
895,946	339,19
896,114	319,36
896,282	363,23
896,45	306,54
896,618	303,14
896,786	318,36
896,954	292,32
897,122	301,34
897,29	262,88
897,458	284,11
897,625	295,73
897,793	251,26
897,961	293,12
898,129	264,88
898,297	259,08
898,464	275,3
898,632	280,91
898,8	263,28
898,968	250,26
899,135	250,06
899,303	243,85
899,471	232,24
899,638	244,45
899,806	225,63
899,973	213,81
900,141	235,04
900,309	249,86
900,476	252,67
900,644	221,82
900,811	250,46
900,979	225,63
901,146	236,04
901,314	232,04
901,481	215,01
901,649	216,21
901,816	232,84
901,983	210,81
902,151	244,65
