Data from Lichquelle_USB4F055801__6__006.txt Node

Date: Thu Feb 19 14:02:42 CET 2026
User: Versuch 234
Spectrometer: USB4F05580
Trigger mode: 4
Integration Time (sec): 4,500000E-2
Scans to average: 10
Electric dark correction enabled: true
Nonlinearity correction enabled: false
Boxcar width: 0
XAxis mode: Wavelengths
Number of Pixels in Spectrum: 3648
>>>>>Begin Spectral Data<<<<<
197,409	-73,99
197,623	-73,99
197,837	-73,99
198,051	-74,79
198,265	-93,82
198,479	0,32
198,693	9,53
198,907	6,13
199,122	-4,89
199,336	-9,7
199,55	-4,69
199,763	2,52
199,977	12,33
200,191	-11,3
200,405	-6,49
200,619	-19,11
200,833	25,35
201,047	-2,69
201,261	26,35
201,475	70,82
201,689	81,84
201,903	67,21
202,117	70,82
202,331	92,65
202,545	79,03
202,758	67,61
202,972	88,04
203,186	105,47
203,4	74,22
203,614	44,58
203,828	72,02
204,041	54,2
204,255	71,62
204,469	69,82
204,683	83,64
204,897	77,03
205,11	82,64
205,324	82,44
205,538	98,66
205,752	84,84
205,965	87,04
206,179	86,64
206,393	80,23
206,606	83,24
206,82	49,39
207,034	62,41
207,248	63,81
207,461	71,02
207,675	61,41
207,889	79,43
208,102	78,23
208,316	86,84
208,529	85,64
208,743	65,41
208,957	98,86
209,17	89,45
209,384	94,05
209,597	49,99
209,811	83,84
210,025	74,02
210,238	72,62
210,452	92,65
210,665	105,47
210,879	97,26
211,092	94,05
211,306	91,45
211,519	69,82
211,733	91,45
211,946	73,02
212,16	48,19
212,373	69,02
212,587	65,81
212,8	73,22
213,014	84,24
213,227	94,45
213,44	77,83
213,654	68,02
213,867	84,04
214,081	76,83
214,294	92,05
214,507	102,87
214,721	59,2
214,934	73,42
215,148	98,06
215,361	49,99
215,574	90,65
215,788	90,65
216,001	87,24
216,214	97,26
216,428	79,63
216,641	69,42
216,854	67,41
217,067	76,03
217,281	69,22
217,494	86,04
217,707	59,4
217,92	97,06
218,134	78,03
218,347	74,42
218,56	77,63
218,773	80,83
218,986	91,45
219,2	83,04
219,413	56
219,626	102,06
219,839	68,82
220,052	75,43
220,265	86,84
220,479	89,65
220,692	76,23
220,905	94,65
221,118	89,85
221,331	108,07
221,544	82,24
221,757	105,87
221,97	60
222,183	97,86
222,396	75,63
222,609	100,26
222,822	92,05
223,035	105,27
223,249	84,84
223,462	97,26
223,675	83,64
223,887	102,87
224,1	91,05
224,313	80,23
224,526	64,61
224,739	73,62
224,952	90,65
225,165	120,89
225,378	98,86
225,591	66,01
225,804	104,67
226,017	77,03
226,23	127,9
226,443	84,44
226,656	119,49
226,868	77,83
227,081	79,03
227,294	97,26
227,507	106,87
227,72	94,65
227,933	89,25
228,145	103,47
228,358	80,83
228,571	70,02
228,784	95,46
228,997	82,04
229,209	84,44
229,422	96,86
229,635	86,44
229,848	86,64
230,06	101,86
230,273	108,47
230,486	84,04
230,698	78,23
230,911	75,23
231,124	100,86
231,336	109,88
231,549	71,22
231,762	88,04
231,974	59,4
232,187	89,45
232,4	79,23
232,612	80,63
232,825	100,06
233,038	73,82
233,25	128,3
233,463	100,26
233,675	58,6
233,888	109,28
234,1	106,67
234,313	83,64
234,526	79,83
234,738	101,66
234,951	80,03
235,163	90,05
235,376	94,85
235,588	94,25
235,801	114,48
236,013	121,89
236,226	109,48
236,438	122,69
236,65	112,68
236,863	104,87
237,075	99,46
237,288	130,71
237,5	103,67
237,713	98,06
237,925	110,28
238,137	80,03
238,35	111,68
238,562	108,27
238,774	91,85
238,987	89,25
239,199	104,87
239,411	98,66
239,624	71,42
239,836	135,91
240,048	99,06
240,261	68,22
240,473	115,68
240,685	82,64
240,897	64,81
241,11	101,86
241,322	68,82
241,534	92,65
241,746	106,87
241,959	69,02
242,171	112,68
242,383	100,06
242,595	88,85
242,807	101,66
243,02	85,04
243,232	71,82
243,444	99,86
243,656	79,43
243,868	110,88
244,08	99,86
244,293	95,46
244,505	114,48
244,717	108,87
244,929	70,22
245,141	102,87
245,353	101,46
245,565	98,06
245,777	124,9
245,989	93,65
246,201	107,27
246,413	87,44
246,625	111,88
246,837	93,65
247,049	103,67
247,261	80,43
247,473	106,47
247,685	108,87
247,897	84,64
248,109	95,86
248,321	87,64
248,533	99,46
248,745	107,07
248,957	114,08
249,169	109,88
249,381	101,86
249,593	109,88
249,804	134,91
250,016	106,87
250,228	108,87
250,44	89,65
250,652	104,27
250,864	95,05
251,075	96,06
251,287	133,91
251,499	93,45
251,711	99,66
251,923	121,09
252,134	114,48
252,346	73,62
252,558	116,08
252,77	124,9
252,982	114,08
253,193	97,06
253,405	101,46
253,617	91,65
253,828	95,05
254,04	79,23
254,252	90,05
254,463	132,91
254,675	104,87
254,887	150,74
255,098	98,46
255,31	87,44
255,522	98,06
255,733	107,67
255,945	104,87
256,157	136,11
256,368	130,31
256,58	130,91
256,791	93,45
257,003	88,44
257,214	102,47
257,426	103,07
257,637	78,83
257,849	99,46
258,061	99,86
258,272	112,48
258,484	98,86
258,695	111,88
258,907	113,88
259,118	103,87
259,329	111,68
259,541	110,08
259,752	96,46
259,964	105,67
260,175	115,08
260,387	137,72
260,598	102,06
260,809	99,46
261,021	124,9
261,232	102,67
261,444	110,28
261,655	109,07
261,866	147,33
262,078	121,29
262,289	138,92
262,5	104,07
262,712	124,1
262,923	130,51
263,134	113,48
263,345	116,89
263,557	106,67
263,768	130,51
263,979	88,85
264,191	96,66
264,402	132,11
264,613	87,64
264,824	114,28
265,035	97,86
265,247	93,25
265,458	151,34
265,669	111,68
265,88	130,71
266,091	127,9
266,302	124,5
266,514	114,88
266,725	129,3
266,936	105,27
267,147	131,51
267,358	140,72
267,569	106,87
267,78	122,09
267,991	131,71
268,202	120,69
268,414	116,29
268,625	124,1
268,836	111,88
269,047	84,24
269,258	102,26
269,469	106,87
269,68	135,11
269,891	123,3
270,102	127,9
270,313	115,48
270,524	124,7
270,735	122,69
270,945	144,13
271,156	113,48
271,367	129,3
271,578	105,67
271,789	118,49
272	106,67
272,211	110,88
272,422	130,11
272,633	109,48
272,844	148,13
273,054	129,7
273,265	91,05
273,476	128,3
273,687	104,67
273,898	109,07
274,109	117,89
274,319	140,52
274,53	134,51
274,741	92,45
274,952	100,86
275,162	135,91
275,373	137,72
275,584	133,11
275,795	133,91
276,005	129,5
276,216	100,66
276,427	133,91
276,637	116,29
276,848	105,27
277,059	117,69
277,269	142,52
277,48	115,88
277,691	105,67
277,901	106,47
278,112	122,89
278,323	117,29
278,533	83,04
278,744	128,5
278,954	132,71
279,165	134,51
279,376	130,31
279,586	131,11
279,797	137,52
280,007	115,28
280,218	95,46
280,428	131,71
280,639	122,29
280,849	134,71
281,06	152,54
281,27	126,7
281,481	156,94
281,691	150,94
281,902	108,47
282,112	132,31
282,322	141,12
282,533	111,48
282,743	142,32
282,954	126,3
283,164	135,91
283,374	127,9
283,585	106,07
283,795	125,7
284,006	118,89
284,216	93,05
284,426	172,17
284,637	166,16
284,847	155,14
285,057	111,28
285,268	167,36
285,478	126,7
285,688	125,3
285,898	139,32
286,109	153,74
286,319	159,35
286,529	153,94
286,739	133,51
286,95	111,48
287,16	150,33
287,37	166,16
287,58	152,74
287,79	125,5
288,001	146,33
288,211	139,72
288,421	98,86
288,631	150,74
288,841	150,94
289,051	148,13
289,261	114,08
289,471	183,78
289,682	130,31
289,892	130,51
290,102	139,52
290,312	130,71
290,522	137,52
290,732	158,55
290,942	143,52
291,152	156,34
291,362	127,1
291,572	165,96
291,782	139,52
291,992	142,92
292,202	174,37
292,412	186,39
292,622	130,11
292,832	136,71
293,042	136,31
293,252	139,32
293,462	162,55
293,672	143,93
293,881	172,57
294,091	142,12
294,301	157,75
294,511	158,95
294,721	165,76
294,931	173,57
295,141	147,33
295,35	148,53
295,56	159,75
295,77	173,37
295,98	170,16
296,19	148,53
296,4	150,13
296,609	142,92
296,819	168,56
297,029	146,33
297,239	156,54
297,448	120,89
297,658	138,72
297,868	157,95
298,077	167,76
298,287	175,57
298,497	164,96
298,706	144,73
298,916	158,15
299,126	160,55
299,335	167,96
299,545	175,77
299,755	164,96
299,964	170,76
300,174	161,35
300,384	171,57
300,593	148,13
300,803	166,76
301,012	173,17
301,222	165,56
301,431	182,38
301,641	196
301,851	185,79
302,06	200,81
302,27	205,41
302,479	194,6
302,689	198,2
302,898	206,62
303,107	229,65
303,317	217,43
303,526	204,01
303,736	220,04
303,945	237,26
304,155	236,86
304,364	210,82
304,574	244,47
304,783	248,08
304,992	247,07
305,202	267,91
305,411	312,97
305,62	302,56
305,83	308,96
306,039	367,25
306,248	337,61
306,458	372,26
306,667	396,09
306,876	383,47
307,086	419,12
307,295	410,91
307,504	415,52
307,713	444,56
307,923	514,06
308,132	455,18
308,341	507,25
308,55	531,89
308,76	507,65
308,969	541,3
309,178	590,77
309,387	620,82
309,596	692,32
309,805	727,57
310,015	784,45
310,224	826,92
310,433	845,34
310,642	923,66
310,851	919,85
311,06	951,3
311,269	1002,37
311,478	991,35
311,687	1103,32
311,896	1143,97
312,106	1126,95
312,315	1206,06
312,524	1182,23
312,733	1249,93
312,942	1314,42
313,151	1363,89
313,36	1378,11
313,569	1452,82
313,778	1441,81
313,987	1571,19
314,195	1569,99
314,404	1631,48
314,613	1579,61
314,822	1641,5
315,031	1658,12
315,24	1736,83
315,449	1746,45
315,658	1882,04
315,867	2008,23
316,076	2124
316,284	2104,57
316,493	2261,8
316,702	2217,13
316,911	2253,98
317,12	2301,45
317,329	2373,56
317,537	2423,83
317,746	2579,06
317,955	2567,64
318,164	2699,43
318,372	2637,94
318,581	2722,46
318,79	2786,36
318,999	2927,76
319,207	2932,37
319,416	3175,12
319,625	3179,53
319,833	3241,22
320,042	3259,44
320,251	3274,06
320,459	3283,68
320,668	3408,66
320,877	3235,21
321,085	3444,11
321,294	3363,39
321,502	3363,79
321,711	3268,25
321,92	3414,07
322,128	3351,17
322,337	3496,39
322,545	3529,43
322,754	3696,27
322,962	3787,21
323,171	3991,3
323,379	4025,75
323,588	4088,64
323,796	4250,08
324,005	4244,07
324,213	4305,96
324,422	4597,18
324,63	4799,87
324,839	4913,44
325,047	5174,82
325,256	5471,25
325,464	5468,64
325,672	5792,71
325,881	5689,56
326,089	5861,61
326,297	5765,87
326,506	5967,17
326,714	5732,63
326,923	5837,58
327,131	5781,1
327,339	5833,37
327,548	5968,97
327,756	6032,26
327,964	6163,45
328,172	6392,58
328,381	6404,2
328,589	6824,21
328,797	6817,8
329,005	7048,33
329,214	6847,04
329,422	6833,62
329,63	6655,56
329,838	6765,12
330,046	6463,69
330,255	6641,34
330,463	6732,68
330,671	6661,37
330,879	6643,15
331,087	6795,57
331,295	6692,82
331,503	6775,14
331,712	6651,56
331,92	6826,21
332,128	6692,02
332,336	6775,14
332,544	6492,13
332,752	6713,65
332,96	6647,95
333,168	6724,26
333,376	6552,62
333,584	6917,94
333,792	6874,08
334	7121,44
334,208	6853,85
334,416	7084,19
334,624	6923,75
334,832	6758,51
335,04	6655,56
335,248	6660,57
335,456	6435,45
335,664	6526,78
335,872	6351,72
336,08	6459,68
336,287	6359,13
336,495	6368,95
336,703	6373,96
336,911	6558,02
337,119	6722,46
337,327	6714,05
337,535	6838,23
337,742	7013,08
337,95	6937,97
338,158	7281,87
338,366	7237,21
338,573	7486,77
338,781	7383,22
338,989	7558,27
339,197	7694,27
339,404	7909,98
339,612	7782,4
339,82	7807,83
340,028	7598,53
340,235	7705,69
340,443	7403,65
340,651	7632,78
340,858	7670,84
341,066	7714,1
341,274	7717,7
341,481	8009,53
341,689	7765,97
341,896	8048,78
342,104	7900,77
342,312	8017,34
342,519	7776,59
342,727	7870,13
342,934	7477,16
343,142	7312,72
343,349	7070,17
343,557	7161,1
343,765	6976,03
343,972	7216,18
344,18	7372,6
344,387	7532,44
344,594	7645
344,802	7745,74
345,009	7636,79
345,217	7914,19
345,424	7575,3
345,632	7868,32
345,839	7792,41
346,047	8078,63
346,254	7910,18
346,461	7945,23
346,669	7772,38
346,876	7972,07
347,083	7786,8
347,291	7875,33
347,498	7833,07
347,705	8126,3
347,913	7881,54
348,12	8051,59
348,327	7705,49
348,535	8144,32
348,742	7791,01
348,949	8430,74
349,156	8315,17
349,364	8747,4
349,571	8914,64
349,778	9200,85
349,985	8910,43
350,192	8882,59
350,4	8550,51
350,607	9034,21
350,814	8739,59
351,021	8799,07
351,228	8562,53
351,435	8809,89
351,643	8455,97
351,85	8654,06
352,057	8464,59
352,264	8704,33
352,471	9051,84
352,678	9206,06
352,885	9246,72
353,092	9699,78
353,299	9470,85
353,506	9943,73
353,713	9620,06
353,92	9895,86
354,127	9743,64
354,334	9897,26
354,541	9789,71
354,748	9788,11
354,955	9502,09
355,162	9309,41
355,369	9277,57
355,576	9237,11
355,783	8651,26
355,99	8462,18
356,197	8236,06
356,404	8256,29
356,611	8044,98
356,817	8102,06
357,024	7627,97
357,231	7705,89
357,438	7394,44
357,645	7373,81
357,852	7387,83
358,058	7690,26
358,265	8058,4
358,472	8546,11
358,679	8933,47
358,885	9302,4
359,092	9474,85
359,299	9649,1
359,506	9341,06
359,712	9306,41
359,919	9069,66
360,126	9099,51
360,333	8925,66
360,539	9097,7
360,746	8741,59
360,953	9034,21
361,159	9094,5
361,366	9442,81
361,572	9423,58
361,779	9951,94
361,986	9882,44
362,192	9909,68
362,399	9836,78
362,605	9957,95
362,812	9785,9
363,019	10157,44
363,225	10255,78
363,432	10432,04
363,638	10099,76
363,845	10478,51
364,051	10318,27
364,258	10742,69
364,464	10832,22
364,671	11207,76
364,877	11657,82
365,084	12115,08
365,29	12068,21
365,496	12287,93
365,703	12161,55
365,909	12146,52
366,116	12041,77
366,322	12437,35
366,528	12282,92
366,735	12111,87
366,941	11999,91
367,147	11736,33
367,354	11832,47
367,56	11623,57
367,766	11425,68
367,973	12010,13
368,179	11729,32
368,385	12060
368,592	12269,5
368,798	12597,58
369,004	12527,48
369,21	12481,81
369,417	12306,16
369,623	12170,96
369,829	11937,22
370,035	11676,04
370,241	11864,92
370,448	12386,07
370,654	12180,57
370,86	12241,46
371,066	11515,61
371,272	11885,35
371,478	11183,93
371,684	11155,09
371,891	11118,23
372,097	11114,03
372,303	10727,27
372,509	10370,55
372,715	10080,33
372,921	10028,45
373,127	9792,91
373,333	10153,44
373,539	9823,76
373,745	10050,09
373,951	9518,92
374,157	10128,2
374,363	10114,18
374,569	10727,87
374,775	10845,24
374,981	11280,47
375,187	11380,81
375,393	11467,74
375,599	11157,89
375,804	11522,02
376,01	11427,28
376,216	12171,16
376,422	12134,71
376,628	12713,35
376,834	13087,09
377,04	13464,43
377,246	13628,27
377,451	14024,85
377,657	13741,44
377,863	13869,82
378,069	13231,9
378,274	12976,33
378,48	12389,48
378,686	12143,92
378,892	11685,86
379,097	12171,56
379,303	12136,31
379,509	12590,17
379,715	12479,61
379,92	13040,42
380,126	12624,02
380,332	12744,59
380,537	12082,23
380,743	12045,98
380,949	11217,78
381,154	10872,28
381,36	10396,39
381,565	9957,15
381,771	9333,85
381,977	9250,73
382,182	8582,96
382,388	8751,2
382,593	8472,2
382,799	8225,04
383,004	8527,68
383,21	8750,2
383,415	9302,6
383,621	9622,47
383,826	10137,01
384,032	11224,39
384,237	10918,14
384,443	10925,96
384,648	11057,55
384,854	10818,6
385,059	10871,48
385,265	10868,47
385,47	11001,06
385,675	11194,34
385,881	11117,43
386,086	11354,58
386,291	11107,42
386,497	11449,11
386,702	10832,62
386,907	11195,95
387,113	11315,32
387,318	11375,41
387,523	11247,42
387,729	10953,39
387,934	11357,38
388,139	11566,88
388,344	11795,42
388,55	12324,18
388,755	12584,56
388,96	13125,54
389,165	13243,51
389,371	13347,26
389,576	13125,54
389,781	13594,02
389,986	13688,76
390,191	14124,99
390,396	14088,74
390,601	14532,98
390,807	14308,06
391,012	14294,04
391,217	13726,82
391,422	13839,98
391,627	12328,79
391,832	11680,85
392,037	10567,03
392,242	9673,54
392,447	8687,91
392,652	8215,43
392,857	8115,88
393,062	8638,64
393,267	9051,24
393,472	9934,32
393,677	10323,68
393,882	11524,82
394,087	12259,49
394,292	12659,87
394,497	12830,92
394,702	13685,36
394,907	13358,48
395,112	13204,86
395,317	12688,11
395,521	11590,72
395,726	10594,07
395,931	9888,45
396,136	9109,92
396,341	9606,64
396,546	9852,6
396,75	11260,64
396,955	12059,8
397,16	13282,37
397,365	13855,4
397,57	14987,84
397,774	15637,99
397,979	16350,62
398,184	16893,61
398,389	17106,91
398,593	17505,89
398,798	17770,68
399,003	17559,97
399,207	18256,58
399,412	18235,95
399,617	18565,63
399,821	18061,1
400,026	18813,39
400,231	18849,04
400,435	19245,82
400,64	19178,72
400,844	19304,3
401,049	18712,04
401,254	19474,55
401,458	19487,37
401,663	19665,62
401,867	20064,2
402,072	19575,89
402,276	18945,78
402,481	19544,45
402,685	18835,62
402,89	18769,32
403,094	19732,72
403,299	19402,44
403,503	19216,37
403,708	19666,02
403,912	18315,87
404,116	18833,02
404,321	18780,74
404,525	18490,12
404,73	18828,01
404,934	18860,26
405,138	18454,87
405,343	18846,24
405,547	17930,31
405,751	18303,65
405,956	17571,99
406,16	18295,24
406,364	18355,52
406,569	18773,73
406,773	18322,68
406,977	18484,71
407,181	19848,69
407,386	19345,76
407,59	19141,26
407,794	19575,09
407,998	20088,84
408,202	20773,43
408,407	19768,77
408,611	19969,66
408,815	19438,7
409,019	18888,5
409,223	17988,79
409,427	18631,12
409,632	18322,08
409,836	18660,77
410,04	19126,04
410,244	19668,23
410,448	19537,24
410,652	20553,91
410,856	20293,33
411,06	20605,19
411,264	20727,16
411,468	20757,01
411,672	20198,4
411,876	20545,7
412,08	19973,07
412,284	21609,04
412,488	20097,65
412,692	21448,41
412,896	19903,97
413,1	20012,13
413,304	20697,32
413,508	20521,87
413,712	19906,37
413,916	20568,93
414,12	19966,46
414,323	20495,83
414,527	19731,72
414,731	20665,07
414,935	20227,64
415,139	20844,93
415,343	20169,75
415,546	21215,27
415,75	20361,23
415,954	20691,11
416,158	20430,93
416,361	19533,23
416,565	19912,18
416,769	19750,75
416,973	19447,71
417,176	20097,25
417,38	19512,2
417,584	19208,76
417,788	19832,87
417,991	19614,15
418,195	19637,58
418,398	19887,95
418,602	19768,17
418,806	19331,34
419,009	19153,68
419,213	19663,62
419,417	18917,74
419,62	19691,66
419,824	19379,61
420,027	20053,39
420,231	20346,61
420,434	20836,52
420,638	20710,94
420,841	20322,78
421,045	20446,96
421,248	20190,79
421,452	19715,5
421,655	19855,7
421,859	19168,9
422,062	18892,7
422,266	19334,74
422,469	19026,7
422,673	19136,66
422,876	20188,58
423,079	18641,54
423,283	19402,04
423,486	20044,97
423,689	20372,25
423,893	20255,08
424,096	18779,14
424,299	19248,02
424,503	19288,68
424,706	18934,36
424,909	19136,26
425,113	19429,28
425,316	19285,87
425,519	18474,9
425,722	20154,33
425,926	18696,02
426,129	19407,05
426,332	17811,14
426,535	18556,62
426,739	18064,5
426,942	18088,94
427,145	17558,77
427,348	19143,47
427,551	18368,34
427,754	18086,33
427,957	18029,05
428,161	17510,9
428,364	17588,61
428,567	18005,62
428,77	16865,57
428,973	17045,63
429,176	16363,24
429,379	15407,25
429,582	14781,74
429,785	14683,2
429,988	14255,18
430,191	15466,54
430,394	15187,93
430,597	16380,46
430,8	17128,35
431,003	18861,26
431,206	18022,04
431,409	19821,05
431,612	19149,48
431,815	19843,08
432,018	20342
432,221	21037,41
432,423	20575,14
432,626	21999,41
432,829	20847,74
433,032	20702,33
433,235	20607,59
433,438	20476
433,64	19669,03
433,843	20416,51
434,046	20571,54
434,249	20485,01
434,452	21896,66
434,654	21426,18
434,857	21654,51
435,06	21912,48
435,263	22762,11
435,465	23281,47
435,668	23170,71
435,871	23522,41
436,073	22821
436,276	23859,3
436,479	23036,51
436,681	23537,44
436,884	22304,65
437,087	22210,31
437,289	22049,68
437,492	22063,5
437,694	21088,49
437,897	20932,86
438,1	20537,69
438,302	21136,96
438,505	21642,09
438,707	22163,44
438,91	22011,02
439,112	22250,57
439,315	21744,24
439,517	22728,26
439,72	22536,19
439,922	22612,9
440,125	22898,11
440,327	22939,97
440,529	23020,89
440,732	25620,06
440,934	23319,12
441,137	24470,59
441,339	24085,43
441,541	24989,74
441,744	24041,37
441,946	24807,88
442,148	24764,82
442,351	25591,21
442,553	24189,18
442,755	25380,71
442,958	24458,97
443,16	24808,08
443,362	24019,13
443,565	24747,39
443,767	24642,24
443,969	24936,06
444,171	24035,56
444,373	24943,47
444,576	25135,75
444,778	24912,23
444,98	23239
445,182	24137,11
445,384	23755,35
445,586	24828,71
445,789	23745,94
445,991	24315,36
446,193	24746,99
446,395	25215,27
446,597	24700,72
446,799	24870,57
447,001	25830,76
447,203	26160,04
447,405	25360,88
447,607	25734,02
447,809	25949,93
448,011	25785,3
448,213	25678,94
448,415	25840,17
448,617	25202,85
448,819	25856,4
449,021	24674,48
449,223	27374,6
449,425	25797,31
449,627	27489,57
449,829	25994
450,031	28734,97
450,233	26346,31
450,435	27252,82
450,636	26683,2
450,838	26298,64
451,04	26819,39
451,242	25870,42
451,444	25041,82
451,646	25467,43
451,847	25498,68
452,049	24725,56
452,251	24527,47
452,453	24753,6
452,654	24496,83
452,856	24896,81
453,058	26712,64
453,26	25496,28
453,461	25183,62
453,663	25399,54
453,865	27104,41
454,066	27797,21
454,268	25222,28
454,47	24944,28
454,671	25598,02
454,873	25819,95
455,074	25329,83
455,276	26418,01
455,478	25227,49
455,679	26652,35
455,881	27526,22
456,082	27156,08
456,284	26474,49
456,485	27063,15
456,687	27390,02
456,888	27943,02
457,09	26768,92
457,291	26964,6
457,493	26831,61
457,694	27809,63
457,896	26721,05
458,097	26892,9
458,299	26977,62
458,5	26411,2
458,701	26692,01
458,903	27795,61
459,104	27333,54
459,306	27377,4
459,507	27052,13
459,708	28279,11
459,91	27565,68
460,111	27937,21
460,312	29817,54
460,514	27842,08
460,715	28895,6
460,916	30219,32
461,117	28761,21
461,319	29127,54
461,52	29666,12
461,721	29560,17
461,922	29398,53
462,124	28859,55
462,325	30563,62
462,526	30005,81
462,727	29010,77
462,928	30188,68
463,129	28907,42
463,331	30272
463,532	29423,97
463,733	29561,17
463,934	29170,6
464,135	31089,18
464,336	28573,14
464,537	31809,03
464,738	30364,93
464,939	29808,93
465,14	30229,74
465,341	32654,65
465,542	31594,72
465,743	31041,11
465,944	30028,85
466,145	31929,8
466,346	32170,75
466,547	31186,73
466,748	30780,34
466,949	32672,28
467,15	32471,19
467,351	31547,65
467,552	33381,11
467,753	32438,14
467,953	33070,46
468,154	32938,87
468,355	32119,28
468,556	33047,22
468,757	34217,32
468,958	34245,96
469,158	33347,06
469,359	33097,09
469,56	33220,27
469,761	32844,93
469,962	35010,67
470,162	34944,97
470,363	34832,21
470,564	35718,29
470,764	35245,21
470,965	35843,68
471,166	35777,78
471,366	38465,28
471,567	37224,28
471,768	38100,95
471,968	37581,8
472,169	37277,96
472,37	36123,08
472,57	37284,36
472,771	38012,82
472,971	38893,9
473,172	38415,2
473,373	39150,07
473,573	38246,56
473,774	39291,87
473,974	40700,12
474,175	42508,34
474,375	41014,17
474,576	40486,01
474,776	40969,51
474,977	41670,52
475,177	40842,72
475,377	40023,54
475,578	40024,34
475,778	41258,33
475,979	39422,06
476,179	41592,61
476,379	42347,3
476,58	42075,51
476,78	42026,64
476,981	42584,45
477,181	43035,5
477,381	42954,98
477,582	42933,95
477,782	44863,55
477,982	43680,84
478,182	44610,78
478,383	43856,49
478,583	45215,66
478,783	45375,49
478,983	46699,01
479,184	45518,9
479,384	47042,11
479,584	45677,53
479,784	46432,23
479,984	46047,47
480,184	46703,42
480,385	47188,52
480,585	49209,45
480,785	47899,75
480,985	49052,42
481,185	48252,86
481,385	49172,8
481,585	48011,31
481,785	49904,86
481,985	49580,79
482,185	50525,76
482,385	48783,63
482,585	49301,58
482,785	49888,44
482,985	49228,28
483,185	48995,14
483,385	49620,45
483,585	49310,2
483,785	49554,55
483,985	48676,48
484,185	50237,14
484,385	49259,32
484,585	49127,53
484,785	47306,69
484,985	46859,24
485,185	45116,92
485,384	44728,15
485,584	44028,14
485,784	43895,95
485,984	44147,31
486,184	45368,88
486,383	46306,04
486,583	46801,16
486,783	47054,73
486,983	48128,88
487,183	48695,91
487,382	49704,17
487,582	49776,47
487,782	50228,13
487,981	49646,08
488,181	50279,2
488,381	50415,8
488,58	51053,12
488,78	51365,98
488,98	52438,13
489,179	52956,08
489,379	53926,49
489,579	53071,25
489,778	54344,09
489,978	53589,6
490,177	53749,43
490,377	54165,84
490,576	53242,1
490,776	52681,08
490,975	53079,46
491,175	51958,24
491,374	51869,51
491,574	51482,35
491,773	51287,26
491,973	52102,04
492,172	53619,44
492,372	52938,06
492,571	53626,25
492,771	53328,82
492,97	53871,21
493,169	53044,81
493,369	55233,58
493,568	54328,47
493,767	55292,67
493,967	55034,9
494,166	56096,23
494,365	55129,23
494,565	55268,03
494,764	55091,58
494,963	55450,7
495,163	55313,9
495,362	55192,12
495,561	54665,36
495,76	56454,15
495,959	55233,18
496,159	55483,35
496,358	55503,17
496,557	56309,54
496,756	55757,54
496,955	55893,34
497,155	54853,83
497,354	54518,95
497,553	53319,01
497,752	54114,36
497,951	54119,77
498,15	54412,79
498,349	53278,55
498,548	54697,41
498,747	54697,01
498,946	54589,85
499,145	53904,66
499,344	54115,36
499,543	53109,3
499,742	53600,62
499,941	52510,44
500,14	52690,1
500,339	52022,13
500,538	52443,14
500,737	51661
500,936	51683,84
501,135	51687,64
501,334	52484,6
501,533	51991,68
501,732	52964,69
501,931	52733,36
502,129	53360,47
502,328	53618,64
502,527	53711,18
502,726	52474,58
502,925	53034,4
503,123	52731,76
503,322	52983,72
503,521	51870,91
503,72	52520,45
503,919	52973,11
504,117	53243,9
504,316	53229,28
504,515	53966,95
504,713	54729,85
504,912	54746,48
505,111	54762,1
505,309	55861,69
505,508	55382,8
505,707	55951,42
505,905	54787,34
506,104	55410,64
506,302	55023,48
506,501	55331,73
506,7	54435,43
506,898	54718,64
507,097	53794,7
507,295	54139
507,494	53087,87
507,692	53935,9
507,891	54163,63
508,089	55264,43
508,288	55340,94
508,486	55814,23
508,685	55215,36
508,883	55606,52
509,082	55285,06
509,28	55673,22
509,478	55029,29
509,677	55920,58
509,875	55806,01
510,073	56476,59
510,272	56023,13
510,47	56694,5
510,669	56288,71
510,867	57430,17
511,065	56537,87
511,263	57704,37
511,462	57014,37
511,66	57049,62
511,858	56694,1
512,056	56938,66
512,255	56105,25
512,453	56672,07
512,651	56087,82
512,849	56302,53
513,048	55420,25
513,246	55741,52
513,444	55647,58
513,642	55671,02
513,84	55511,39
514,038	56445,14
514,236	56070,2
514,435	56562,31
514,633	56407,08
514,831	57180,41
515,029	57305,99
515,227	57250,11
515,425	55972,05
515,623	55845,87
515,821	54540,18
516,019	53230,48
516,217	51838,86
516,415	51903,36
516,613	51333,93
516,811	52241,45
517,009	52255,47
517,207	53074,05
517,405	52654,44
517,602	52940,66
517,8	52344,2
517,998	52885,98
518,196	53913,67
518,394	54648,13
518,592	54736,26
518,79	55980,67
518,987	55820,23
519,185	56881,57
519,383	56764,6
519,581	57552,95
519,779	56590,55
519,976	58008,41
520,174	57267,73
520,372	58161,83
520,57	57381,1
520,767	58673,77
520,965	57907,66
521,163	58485,1
521,36	58321,86
521,558	58155,42
521,756	57450
521,953	57658,1
522,151	56601,17
522,349	56884,98
522,546	56782,03
522,744	57388,51
522,941	57166,79
523,139	58213,1
523,336	58665,56
523,534	59375,39
523,731	58683,58
523,929	59098,79
524,126	58718,24
524,324	58756,49
524,521	58775,52
524,719	58820,38
524,916	58181,86
525,114	57641,07
525,311	56648,84
525,509	56570,92
525,706	54717,03
525,903	54194,68
526,101	53402,73
526,298	53192,63
526,496	52557,1
526,693	53728,2
526,89	53224,67
527,088	54224,12
527,285	54129,58
527,482	54967,6
527,679	54789,54
527,877	55911,77
528,074	55830,65
528,271	56988,93
528,468	57060,83
528,666	57129,13
528,863	56217,61
529,06	56956,68
529,257	55854,68
529,454	56035,35
529,652	56172,95
529,849	56660,45
530,046	56186,97
530,243	57169,39
530,44	56699,31
530,637	56631,21
530,834	56389,26
531,031	56116,46
531,228	55744,72
531,425	55629,96
531,622	54642,73
531,819	54410,79
532,016	53308,79
532,213	52784,83
532,41	53317,21
532,607	53686,74
532,804	53550,74
533,001	53778,67
533,198	53644,48
533,395	53968,35
533,592	52892,79
533,789	54450,65
533,986	53605,22
534,183	54912,12
534,38	54541,78
534,576	55237,79
534,773	54803,96
534,97	55112,61
535,167	54821,39
535,364	55725,3
535,561	54386,36
535,757	54665,16
535,954	53574,78
536,151	53473,43
536,348	53109,3
536,544	53056,23
536,741	52604,17
536,938	53602,02
537,134	52927,24
537,331	53920,88
537,528	52995,34
537,724	53670,12
537,921	52335,78
538,118	53700,76
538,314	52023,73
538,511	52780,63
538,707	51804,61
538,904	52200,59
539,101	51082,17
539,297	51538,23
539,494	50400,78
539,69	50720,44
539,887	50018,62
540,083	50697,81
540,28	49996,59
540,476	50460,06
540,673	49961,34
540,869	51395,02
541,066	50635,32
541,262	51053,52
541,458	50893,89
541,655	51008,46
541,851	50878,87
542,048	51160,08
542,244	50714,23
542,44	50661,36
542,637	50132,19
542,833	51404,03
543,029	51091,58
543,226	51507,18
543,422	51143,05
543,618	51519
543,814	51035,9
544,011	51416,65
544,207	50522,55
544,403	50983,62
544,599	51074,75
544,796	51411,64
544,992	50884,08
545,188	51099,99
545,384	50771,72
545,58	50931,35
545,776	50733,46
545,972	50753,29
546,169	50342,29
546,365	50746,88
546,561	50107,75
546,757	50556,2
546,953	49919,28
547,149	50113,36
547,345	49331,43
547,541	49971,56
547,737	49121,12
547,933	49813,13
548,129	49518,7
548,325	50541,98
548,521	49594,81
548,717	50592,06
548,913	49374,09
549,109	50160,03
549,305	49541,13
549,501	49826,55
549,697	49316,01
549,892	49740,02
550,088	49097,69
550,284	49505,88
550,48	49228,08
550,676	49945,12
550,872	48595,76
551,067	49748,63
551,263	48965,5
551,459	49555,15
551,655	49009,56
551,85	49213,86
552,046	48899
552,242	48796,45
552,438	48226,83
552,633	48685,49
552,829	48565,12
553,025	49115,51
553,22	48705,32
553,416	48728,75
553,612	48392,07
553,807	49224,67
554,003	49071,25
554,198	49231,28
554,394	48888,19
554,59	49619,04
554,785	48365,23
554,981	49117,12
555,176	48570,52
555,372	48633,82
555,567	48281,51
555,763	48333,58
555,958	47585,5
556,154	47565,47
556,349	47654
556,545	47355,36
556,74	46795,55
556,936	47547,44
557,131	46793,75
557,326	46735,46
557,522	46968,8
557,717	46682,39
557,912	45773,87
558,108	46082,12
558,303	45470,43
558,498	46286,61
558,694	45478,24
558,889	45697,76
559,084	45764,06
559,28	45946,52
559,475	45777,08
559,67	46217,71
559,865	46262,98
560,061	46645,53
560,256	46770,32
560,451	46451,85
560,646	45891,24
560,841	46742,88
561,037	45888,84
561,232	46147,81
561,427	45900,85
561,622	46363,53
561,817	45854,59
562,012	46398,98
562,207	46474,29
562,402	46681,59
562,597	45928,09
562,792	46172,85
562,987	46100,14
563,182	46032,05
563,377	45658,1
563,572	46746,28
563,767	45595,61
563,962	45904,06
564,157	45671,12
564,352	45603,22
564,547	45521,1
564,742	45598,82
564,937	44903,61
565,132	45032,2
565,327	44516,65
565,522	44864,75
565,716	44336,59
565,911	45107,3
566,106	44653,85
566,301	45311,2
566,496	44712,53
566,691	45475,04
566,885	45236,29
567,08	45407,94
567,275	44565,32
567,47	44936,86
567,664	43959,84
567,859	44404,89
568,054	44080,82
568,248	44463,57
568,443	44078,81
568,638	44497,02
568,832	43866,51
569,027	44231,03
569,222	43739,92
569,416	43662,61
569,611	43429,27
569,805	43421,86
570	43005,06
570,195	42521,96
570,389	42811,78
570,584	42605,28
570,778	42364,93
570,973	43645,39
571,167	42820,19
571,362	43551,65
571,556	43297,28
571,751	43921,39
571,945	43236,39
572,139	43958,64
572,334	43717,09
572,528	44014,72
572,723	43459,12
572,917	44193,18
573,111	43679,84
573,306	43964,45
573,5	43836,66
573,694	43451,5
573,889	43330,93
574,083	43890,34
574,277	42916,73
574,472	42740,67
574,666	42607,08
574,86	42990,84
575,054	42576,64
575,249	43237,19
575,443	42465,07
575,637	42637,92
575,831	42431,63
576,025	42853,04
576,219	42138,8
576,414	43039,51
576,608	42665,97
576,802	43020,28
576,996	42190,88
577,19	42312,05
577,384	42192,08
577,578	41985,38
577,772	41443,79
577,966	42271,99
578,16	41496,27
578,354	42246,76
578,548	41711,98
578,742	42316,26
578,936	41926,29
579,13	42770,92
579,324	42242,35
579,518	42762,71
579,712	42163,24
579,906	42996,64
580,1	42347,7
580,294	43278,05
580,488	42483,9
580,682	43146,26
580,875	42859,65
581,069	43029,09
581,263	43126,03
581,457	43445,7
581,651	43224,58
581,845	43482,55
582,038	42788,34
582,232	43870,31
582,426	42738,87
582,62	43942,42
582,813	43198,74
583,007	43710,08
583,201	42925,74
583,394	43501,98
583,588	43167,89
583,782	43585,3
583,975	43226,78
584,169	43830,25
584,363	43267,84
584,556	43170,1
584,75	42436,63
584,943	42569,23
585,137	42191,68
585,33	42211,11
585,524	41910,27
585,718	42585,65
585,911	41760,45
586,105	42394,97
586,298	41872,21
586,491	42599,87
586,685	42440,84
586,878	42361,92
587,072	41911,47
587,265	41918,08
587,459	40982,32
587,652	41417,36
587,845	39700,87
588,039	39862,9
588,232	38838,42
588,426	38261,18
588,619	37268,54
588,812	37281,56
589,005	36898,61
589,199	37431,58
589,392	37581,6
589,585	38091,94
589,779	38144,41
589,972	38649,74
590,165	38430,03
590,358	39180,91
590,551	38777,13
590,745	39221,97
590,938	38912,32
591,131	39416,05
591,324	37652,7
591,517	39621,35
591,71	39213,96
591,904	39773,37
592,097	39255,82
592,29	39595,92
592,483	39026,29
592,676	39655,6
592,869	38940,77
593,062	39444,3
593,255	38776,53
593,448	39115,42
593,641	38475,69
593,834	38938,36
594,027	38426,62
594,22	38712,63
594,413	38227,13
594,606	38691,8
594,799	38294,43
594,992	38955,59
595,184	38328,28
595,377	38761,91
595,57	38836,01
595,763	39413,65
595,956	38618,7
596,149	39008,06
596,341	39118,22
596,534	39084,97
596,727	38761,91
596,92	39015,27
597,113	38612,29
597,305	38630,92
597,498	38276,8
597,691	38600,87
597,883	38304,04
598,076	38407,99
598,269	38380,55
598,462	38508,14
598,654	38554,21
598,847	38554,21
599,039	38371,94
599,232	38712,43
599,425	38175,26
599,617	38224,73
599,81	38264,18
600,002	38301,04
600,195	37474,84
600,387	38256,17
600,58	37637,08
600,772	38000,2
600,965	37412,35
601,157	37725
601,35	37522,91
601,542	37558,36
601,735	37257,93
601,927	37901,26
602,12	37398,93
602,312	37979,57
602,504	37615,64
602,697	37663,71
602,889	37839,97
603,082	38088,93
603,274	37952,93
603,466	38285,82
603,659	37767,66
603,851	37980,77
604,043	37804,72
604,235	38332,28
604,428	37289,17
604,62	37912,27
604,812	37737,62
605,004	38056,88
605,197	37555,56
605,389	37944,92
605,581	37273,15
605,773	37726,41
605,965	37233,09
606,157	37736,82
606,349	37218,47
606,542	37615,84
606,734	37055,03
606,926	37438,59
607,118	36838,72
607,31	37123,53
607,502	36397,08
607,694	37134,95
607,886	36214,21
608,078	37054,63
608,27	36260,88
608,462	36688,3
608,654	36264,49
608,846	36782,24
609,038	36197,99
609,23	36451,36
609,422	36148,32
609,614	36217,22
609,805	35898,15
609,997	36019,73
610,189	36310,35
610,381	36628,41
610,573	35843,68
610,765	36662,06
610,957	35954,24
611,148	36203
611,34	35635,37
611,532	36522,66
611,724	36079,02
611,915	36253,87
612,107	35887,54
612,299	36608,58
612,491	35726,91
612,682	36025,34
612,874	35644,79
613,066	35990,29
613,257	35229,59
613,449	35990,29
613,64	35809,43
613,832	35731,71
614,024	35958,84
614,215	36006,91
614,407	36106,66
614,598	36284,11
614,79	35876,32
614,981	36137,3
615,173	35729,31
615,364	36058,39
615,556	35492,17
615,747	36073,81
615,939	34991,64
616,13	35852,09
616,322	35527,62
616,513	35915,58
616,705	35557,66
616,896	36478,4
617,087	35908,37
617,279	36770,22
617,47	36303,34
617,661	37278,36
617,853	36691,91
618,044	37135,15
618,235	37042,21
618,427	37103,5
618,618	36964,1
618,809	37529,52
619	37075,06
619,192	37623,66
619,383	37257,73
619,574	37805,52
619,765	37482,45
619,957	38113,97
620,148	37373,89
620,339	38296,63
620,53	37527,12
620,721	37849,18
620,912	37062,84
621,103	38118,37
621,294	37419,96
621,485	37757,65
621,677	37236,29
621,868	37720,2
622,059	36787,44
622,25	37268,14
622,441	36917,83
622,632	36869,16
622,823	36669,27
623,014	36575,34
623,205	36472,59
623,395	36224,03
623,586	35800,61
623,777	36490,61
623,968	35556,06
624,159	35989,89
624,35	35590,91
624,541	35774,98
624,732	35435,68
624,923	35561,87
625,113	35243,81
625,304	35202,75
625,495	35160,69
625,686	35492,97
625,877	35360,18
626,067	35487,56
626,258	35369,99
626,449	35390,22
626,639	34586,85
626,83	34620,5
627,021	33785,89
627,211	33936,71
627,402	33365,48
627,593	33622,86
627,783	33487,46
627,974	33612,84
628,165	33345,05
628,355	33481,85
628,546	33056,44
628,736	33357,07
628,927	32889,19
629,117	33334,44
629,308	32792,05
629,498	33036,41
629,689	32551,3
629,879	33175,01
630,07	33057,04
630,26	32975,72
630,451	32740,18
630,641	33062,24
630,832	32369,84
631,022	32785,04
631,212	32171,75
631,403	32516,65
631,593	31957,24
631,784	32822,5
631,974	32308,35
632,164	33057,44
632,355	32462,17
632,545	32916,43
632,735	32683,7
632,925	32512,25
633,116	32267,49
633,306	32400,28
633,496	32039,96
633,686	32563,32
633,876	32252,87
634,067	32438,14
634,257	32222,23
634,447	32641,03
634,637	32528,87
634,827	32536,88
635,017	32000,5
635,208	32298,34
635,398	31898,96
635,588	32462,98
635,778	31776,98
635,968	32482,4
636,158	32059,99
636,348	32467,38
636,538	32201,2
636,728	32731,56
636,918	32077,82
637,108	32663,87
637,298	32132,5
637,488	32647,44
637,678	32233,04
637,868	32413,5
638,057	32136,9
638,247	32395,68
638,437	32055,99
638,627	32395,28
638,817	31484,16
639,007	32218,62
639,197	31419,46
639,386	31734,92
639,576	31138,86
639,766	31513,2
639,956	31167,7
640,145	31366,59
640,335	30972,82
640,525	31497,58
640,715	30843,83
640,904	31272,05
641,094	30561,82
641,284	31278,06
641,473	30910,93
641,663	30912,13
641,853	31098,8
642,042	31162,09
642,232	30515,35
642,421	31133,25
642,611	30779,74
642,801	30846,43
642,99	30738,88
643,18	31273,65
643,369	30753,7
643,559	31051,73
643,748	30691,01
643,938	30664,57
644,127	30418,41
644,317	30838,62
644,506	30216,32
644,695	30182,07
644,885	30403,39
645,074	30323,67
645,264	29897,06
645,453	29904,67
645,642	29831,16
645,832	29852,39
646,021	29394,73
646,21	29752,05
646,4	29348,26
646,589	29464,03
646,778	28870,57
646,967	29117,73
647,157	28580,95
647,346	28965,91
647,535	28514,65
647,724	28695,51
647,913	28596,17
648,103	28739,38
648,292	28321,97
648,481	28428,53
648,67	28115,27
648,859	28173,96
649,048	27997,7
649,237	28150,52
649,427	27980,48
649,616	28547,7
649,805	28120,88
649,994	28732,37
650,183	28429,13
650,372	29001,36
650,561	28095,04
650,75	28508,44
650,939	27991,29
651,128	28251,67
651,317	28019,53
651,506	28428,93
651,694	28170,15
651,883	28493,02
652,072	28194,79
652,261	28513,25
652,45	27957,44
652,639	28747,59
652,828	28318,57
653,016	28550,5
653,205	28122,88
653,394	28500,83
653,583	28242,86
653,772	28522,66
653,96	27834,47
654,149	27825,65
654,338	27331,54
654,527	27631,37
654,715	27039,91
654,904	26998,85
655,093	25809,13
655,281	25498,08
655,47	24590,56
655,658	24380,86
655,847	24184,17
656,036	24407,3
656,224	24150,73
656,413	24857,15
656,601	24808,28
656,79	25468,64
656,978	25109,32
657,167	25988,19
657,355	25767,27
657,544	26729,86
657,732	26272,6
657,921	26779,34
658,109	26592,87
658,298	26995,45
658,486	26507,94
658,675	26941,37
658,863	26804,17
659,051	27048,33
659,24	26683,8
659,428	27417,86
659,616	27102,81
659,805	27189,53
659,993	26895,5
660,181	27496,98
660,37	26996,45
660,558	27255,03
660,746	27176,91
660,934	27439,69
661,123	27050,33
661,311	27611,34
661,499	27083,98
661,687	27376,8
661,875	26944,98
662,064	27256,03
662,252	26848,84
662,44	26854,24
662,628	26927,95
662,816	26883,29
663,004	26792,56
663,192	26827,01
663,38	26681,39
663,568	26704,43
663,756	26678,39
663,944	26678,79
664,132	26558,82
664,32	26834,42
664,508	26318,47
664,696	26728,26
664,884	26222,93
665,072	26600,08
665,26	26079,72
665,448	26751,7
665,636	26302,65
665,824	26369,14
666,012	26099,95
666,199	26451,06
666,387	25883,04
666,575	26092,34
666,763	26057,69
666,951	26115,37
667,139	25876,63
667,326	26124,59
667,514	25545,55
667,702	26112,17
667,889	25763,86
668,077	25884,24
668,265	25718
668,453	25857,8
668,64	25838,77
668,828	25781,69
669,016	25136,96
669,203	25737,83
669,391	25182,02
669,578	25775,88
669,766	25247,32
669,954	25536,53
670,141	25242,51
670,329	25308,6
670,516	25164,4
670,704	25103,71
670,891	24700,92
671,079	25094,89
671,266	24512,45
671,454	24986,14
671,641	24601,58
671,828	24849,14
672,016	24595,17
672,203	24904,22
672,391	24485,41
672,578	25022,79
672,765	24440,75
672,953	24942,47
673,14	24467,99
673,327	24622,01
673,515	24629,42
673,702	24683,5
673,889	24130,5
674,077	24522,87
674,264	24171,16
674,451	24348,81
674,638	24062,4
674,825	24566,13
675,013	23889,55
675,2	24302,15
675,387	23937,02
675,574	24015,33
675,761	23872,92
675,948	23878,73
676,136	23829,86
676,323	24023,34
676,51	23525,42
676,697	24144,12
676,884	23803,22
677,071	23820,25
677,258	23561,87
677,445	23818,64
677,632	23455,92
677,819	23635,38
678,006	23385,02
678,193	23601,93
678,38	23442,3
678,567	23424,67
678,754	23476,55
678,94	23525,82
679,127	23321,32
679,314	23462,13
679,501	23247,82
679,688	23413,26
679,875	22892,3
680,062	23482,76
680,248	22905,52
680,435	23147,87
680,622	22929,36
680,809	23413,66
680,995	22703,83
681,182	23114,62
681,369	22745,29
681,556	23117,83
681,742	22811,18
681,929	22936,57
682,116	22693,61
682,302	22995,05
682,489	22480,5
682,675	22658,16
682,862	22456,67
683,049	22563,83
683,235	22435,84
683,422	22506,14
683,608	21984,19
683,795	22280,21
683,981	21900,06
684,168	22303,85
684,354	21879,43
684,541	22427,03
684,727	21978,98
684,914	22008,02
685,1	21649,5
685,287	21646,3
685,473	21294,79
685,659	21059,24
685,846	20140,51
686,032	19560,47
686,218	18258,99
686,405	17814,74
686,591	17023,39
686,777	16814,29
686,964	16473,2
687,15	16736,18
687,336	16710,54
687,522	16856,35
687,709	16782,64
687,895	17128,15
688,081	16707,94
688,267	16970,72
688,454	16741,79
688,64	16893,21
688,826	16889,8
689,012	17247,12
689,198	17102,11
689,384	17307,01
689,57	17269,55
689,756	17457,22
689,942	17457,62
690,128	17876,63
690,314	17548,15
690,501	18260,99
690,687	18291,23
690,873	18497,53
691,058	18334,69
691,244	18826,41
691,43	18531,98
691,616	18979,03
691,802	18822,4
691,988	18982,43
692,174	18802,97
692,36	18902,72
692,546	18767,72
692,732	18766,32
692,917	18547,8
693,103	18891,9
693,289	18586,26
693,475	18728,27
693,661	18219,93
693,846	18804,18
694,032	18318,67
694,218	18658,36
694,404	18373,15
694,589	18522,37
694,775	18509,95
694,961	18715,65
695,146	18458,87
695,332	18815,39
695,518	18768,12
695,703	18921,55
695,889	18855,05
696,074	19266,85
696,26	19132,85
696,446	19416,06
696,631	19015,28
696,817	19434,49
697,002	19259,03
697,188	19336,35
697,373	19002,86
697,559	19237,6
697,744	18947,98
697,93	19118,03
698,115	18807,18
698,3	18985,84
698,486	18540,19
698,671	18925,95
698,857	18433,04
699,042	18709,44
699,227	18271,8
699,413	18560,62
699,598	18243,56
699,783	18411,61
699,969	17988,39
700,154	18095,75
700,339	17875,43
700,524	18318,47
700,71	17884,84
700,895	18211,32
701,08	17802,52
701,265	18170,26
701,45	17866,62
701,636	18097,15
701,821	17710,19
702,006	17953,14
702,191	17842,38
702,376	18146,42
702,561	17983,39
702,746	18090,74
702,931	17885,44
703,116	18154,63
703,301	17898,86
703,486	18207,31
703,671	18135,01
703,856	18279,41
704,041	18164,85
704,226	18343,11
704,411	18057,69
704,596	18526,37
704,781	18013,23
704,966	18346,31
705,151	18104,16
705,336	18141,01
705,521	18120,58
705,706	18440,25
705,89	18017,64
706,075	18195,89
706,26	18028,05
706,445	18305,45
706,63	18087,74
706,814	18185,88
706,999	18078,72
707,184	18337,5
707,368	17981,18
707,553	18267,6
707,738	17939,72
707,923	18225,34
708,107	17912,08
708,292	18267,6
708,476	18035,06
708,661	17937,32
708,846	17915,69
709,03	18285,82
709,215	18036,06
709,399	18285,22
709,584	18015,03
709,768	18228,94
709,953	17962,36
710,137	18018,24
710,322	17887,85
710,506	17988,59
710,691	17951,34
710,875	18088,54
711,06	17590,62
711,244	17802,72
711,429	17553,76
711,613	17865,61
711,797	17613,05
711,982	17771,48
712,166	17366,69
712,35	17728,22
712,535	17438,8
712,719	17512,5
712,903	17393,93
713,088	17643,49
713,272	17272,96
713,456	17553,36
713,64	17283,57
713,824	17268,35
714,009	17009,57
714,193	17133,15
714,377	16561,72
714,561	16886,6
714,745	16849,94
714,929	16880,99
715,113	16665,88
715,298	16652,46
715,482	16327,59
715,666	16267,3
715,85	15795,21
716,034	15652,81
716,218	15026,5
716,402	14989,85
716,586	14409,6
716,77	14429,23
716,954	13894,06
717,138	13780,49
717,322	13343,26
717,506	13312,01
717,689	12849,54
717,873	12765,22
718,057	12222,43
718,241	12214,82
718,425	12013,93
718,609	11988,29
718,793	11730,72
718,976	11707,29
719,16	11531,03
719,344	11612,15
719,528	11309,91
719,711	11467,74
719,895	11443,51
720,079	11791,01
720,263	11851,7
720,446	12320,38
720,63	12443,35
720,814	12851,35
720,997	12968,92
721,181	13198,45
721,364	13154,79
721,548	13490,07
721,732	13452,42
721,915	13698,57
722,099	13454,22
722,282	13619,06
722,466	13145,37
722,649	13342,46
722,833	12927,86
723,016	12864,57
723,2	12688,11
723,383	12697,12
723,567	12565,73
723,75	12662,87
723,934	12456,77
724,117	12514,06
724,3	12273,71
724,484	12378,86
724,667	12181,78
724,85	12501,44
725,034	12257,28
725,217	12437,95
725,4	12152,13
725,584	12361,44
725,767	12225,44
725,95	12481,81
726,133	12445,36
726,317	12482,81
726,5	12309,56
726,683	12386,07
726,866	12074,22
727,049	12257,69
727,232	12049,18
727,416	12287,13
727,599	12300,35
727,782	12448,56
727,965	12144,72
728,148	12279,52
728,331	12110,87
728,514	12090,24
728,697	12123,29
728,88	12332,59
729,063	12169,16
729,246	12507,05
729,429	12282,52
729,612	12423,33
729,795	12133,71
729,978	12379,26
730,161	12024,55
730,344	12365,84
730,526	12280,72
730,709	12486,22
730,892	12340,41
731,075	12426,13
731,258	12336,6
731,441	12674,29
731,623	12756,41
731,806	12778,24
731,989	12824,11
732,172	13040,42
732,354	12973,32
732,537	13162,4
732,72	13317,02
732,903	13497,08
733,085	13346,06
733,268	13624,27
733,451	13418,77
733,633	13976,38
733,816	13517,71
733,998	13840,78
734,181	13710,19
734,364	13833,57
734,546	13662,52
734,729	13725,61
734,911	13641,89
735,094	13615,85
735,276	13490,67
735,459	13615,25
735,641	13443,2
735,824	13535,34
736,006	13391,33
736,188	13553,96
736,371	13258,74
736,553	13465,44
736,736	13315,62
736,918	13569,59
737,1	13430,59
737,283	13647,3
737,465	13555,77
737,647	13549,76
737,83	13338,45
738,012	13278,77
738,194	13234,3
738,376	13288,98
738,559	13266,75
738,741	13349,67
738,923	13152,78
739,105	13545,55
739,287	13249,32
739,469	13478,86
739,652	13292,99
739,834	13394,13
740,016	13102,71
740,198	13453,82
740,38	13051,04
740,562	13173,41
740,744	13119,94
740,926	13301,2
741,108	13058,85
741,29	13159,39
741,472	13121,54
741,654	13163,2
741,836	13058,25
742,018	13243,71
742,2	13004,57
742,382	13219,68
742,564	13069,86
742,746	13191,64
742,928	13126,14
743,109	13321,03
743,291	13094,9
743,473	13150,98
743,655	12998,96
743,837	13205,06
744,019	12786,45
744,2	13152,38
744,382	12918,84
744,564	13029,6
744,746	12875,18
744,927	12989,95
745,109	12851,95
745,291	13058,05
745,472	12744,59
745,654	12917,04
745,836	12724,16
746,017	12837,33
746,199	12663,67
746,38	12805,68
746,562	12532,88
746,744	12862,56
746,925	12557,32
747,107	12675,69
747,288	12598,58
747,47	12602,79
747,651	12383,67
747,833	12657,47
748,014	12341,61
748,195	12439,95
748,377	12329,19
748,558	12420,92
748,74	12137,91
748,921	12184,58
749,102	12184,38
749,284	12248,47
749,465	11991,7
749,646	12225,84
749,828	11984,29
750,009	12047,38
750,19	11880,14
750,372	12063
750,553	11839,88
750,734	11924,4
750,915	11734,73
751,096	12018,74
751,278	11877,94
751,459	11896,16
751,64	11759,16
751,821	11948,04
752,002	11757,16
752,183	11879,74
752,364	11766,57
752,546	11940,83
752,727	11651,81
752,908	11836,47
753,089	11694,07
753,27	11828,06
753,451	11859,71
753,632	11893,56
753,813	11817,05
753,994	11990,7
754,175	11715,1
754,356	11995,1
754,536	11648,2
754,717	11914,39
754,898	11737,53
755,079	11846,09
755,26	11757,36
755,441	11926,2
755,622	11727,72
755,802	11854,5
755,983	11858,11
756,164	11974,68
756,345	11737,33
756,526	12025,75
756,706	11744,94
756,887	12005,92
757,068	11886,15
757,248	12218,43
757,429	11921,8
757,61	12085,64
757,79	11931,21
757,971	12028,35
758,152	11877,33
758,332	11765,97
758,513	11328,74
758,693	10689,61
758,874	9880,84
759,055	9190,64
759,235	7916,99
759,416	7056,35
759,596	5992,4
759,777	5272,76
759,957	4503,85
760,137	3967,27
760,318	3431,69
760,498	3185,33
760,679	3096,2
760,859	3323,73
761,039	3533,44
761,22	3915,19
761,4	4121,89
761,581	4430,74
761,761	4450,77
761,941	4442,76
762,121	4380,87
762,302	4441,56
762,482	4367,85
762,662	4373,86
762,842	4406,3
763,023	4447,56
763,203	4543,9
763,383	4638,24
763,563	4603,79
763,743	4876,99
763,923	5025
764,104	5343,06
764,284	5549,16
764,464	6029,46
764,644	6146,43
764,824	6683
765,004	6809,19
765,184	7238,41
765,364	7511,81
765,544	7871,93
765,724	8192,19
765,904	8707,34
766,084	8876,58
766,264	9226,69
766,444	9442
766,624	9876,03
766,804	10029,05
766,983	10440,85
767,163	10629,93
767,343	10894,51
767,523	10907,93
767,703	11325,53
767,883	11302,9
768,062	11574,5
768,242	11493,38
768,422	11779,79
768,602	11605,94
768,781	11921,4
768,961	11558,07
769,141	11948,84
769,32	11802,63
769,5	11960,45
769,68	11855,1
769,859	12026,55
770,039	11874,33
770,219	12021,14
770,398	11823,86
770,578	11937,62
770,757	11832,07
770,937	11859,91
771,116	11606,74
771,296	11888,55
771,475	11675,04
771,655	11852,3
771,834	11637,19
772,014	11748,35
772,193	11555,47
772,373	11680,05
772,552	11488,77
772,731	11547,06
772,911	11459,93
773,09	11552,86
773,269	11245,62
773,449	11408,25
773,628	11209,17
773,807	11212,77
773,987	11022,09
774,166	11166,5
774,345	10818,8
774,524	10996,86
774,704	10699,23
774,883	11000,66
775,062	10742,89
775,241	10877,89
775,42	10645,15
775,6	10839,23
775,779	10638,54
775,958	10762,92
776,137	10561,43
776,316	10798,77
776,495	10503,94
776,674	10700,63
776,853	10346,52
777,032	10431,24
777,211	10221,33
777,39	10391,78
777,569	10186,88
777,748	10103,96
777,927	10041,07
778,106	10092,55
778,285	10048,88
778,464	10052,29
778,643	9932,31
778,822	9963,76
779	9841,98
779,179	9969,17
779,358	9646,5
779,537	9783,7
779,716	9636,69
779,894	9710,99
780,073	9595,83
780,252	9535,54
780,431	9441,4
780,609	9638,69
780,788	9401,75
780,967	9480,26
781,145	9256,74
781,324	9551,16
781,503	9212,67
781,681	9337,05
781,86	9157,99
782,039	9236,11
782,217	9052,44
782,396	9115,13
782,574	9004,77
782,753	9001,57
782,931	8887
783,11	8931,26
783,288	8715,15
783,467	8785,85
783,645	8611,2
783,824	8761,62
784,002	8647,65
784,18	8671,09
784,359	8621,41
784,537	8671,69
784,716	8569,74
784,894	8612
785,072	8561,53
785,251	8594,98
785,429	8397,29
785,607	8502,24
785,785	8446,96
785,964	8390,08
786,142	8302,55
786,32	8315,77
786,498	8206,01
786,677	8255,08
786,855	8204,21
787,033	8214,42
787,211	8019,14
787,389	8071,82
787,567	7904,58
787,745	7961,46
787,923	7872,73
788,102	7928,21
788,28	7769,38
788,458	7779,99
788,636	7701,48
788,814	7662,82
788,992	7555,87
789,17	7554,87
789,348	7466,54
789,526	7540,65
789,703	7296,29
789,881	7489,57
790,059	7364,39
790,237	7356,98
790,415	7238,41
790,593	7335,35
790,771	7220,78
790,949	7265,45
791,126	7194,75
791,304	7232,2
791,482	7141,47
791,66	7169,51
791,837	7010,08
792,015	7118,04
792,193	6920,95
792,371	7012,48
792,548	6909,93
792,726	6992,25
792,904	6811,39
793,081	6991,45
793,259	6893,71
793,436	6907,13
793,614	6863,07
793,792	6931,97
793,969	6801,38
794,147	6854,45
794,324	6801,18
794,502	6815,6
794,679	6788,56
794,857	6828,01
795,034	6788,36
795,212	6708,84
795,389	6603,49
795,567	6633,33
795,744	6531,38
795,921	6509,35
796,099	6382,37
796,276	6472,9
796,453	6343,11
796,631	6564,83
796,808	6454,27
796,985	6487,12
797,163	6485,52
797,34	6509,55
797,517	6433,04
797,694	6532,39
797,872	6434,64
798,049	6476,71
798,226	6403,8
798,403	6328,69
798,58	6267,2
798,757	6387,78
798,935	6231,95
799,112	6274,01
799,289	6130,8
799,466	6254,78
799,643	6051,69
799,82	6146,03
799,997	5969,37
800,174	6156,24
800,351	5928,11
800,528	6008,43
800,705	5916,69
800,882	5947,94
801,059	5864,82
801,236	5969,37
801,413	5818,75
801,589	6019,44
801,766	5839,38
801,943	5852,8
802,12	5810,94
802,297	5776,89
802,474	5717,4
802,651	5681,15
802,827	5725,22
803,004	5777,69
803,181	5693,77
803,358	5762,27
803,534	5605,64
803,711	5738,23
803,888	5630,48
804,064	5673,54
804,241	5545,76
804,418	5640,69
804,594	5601,64
804,771	5634,28
804,947	5564,18
805,124	5656,92
805,301	5562,38
805,477	5651,11
805,654	5575,4
805,83	5571,19
806,007	5580,41
806,183	5534,74
806,36	5570,59
806,536	5551,96
806,712	5535,74
806,889	5478,06
807,065	5492,48
807,242	5483,06
807,418	5395,54
807,594	5427,18
807,771	5313,22
807,947	5409,96
808,123	5228,9
808,3	5339,46
808,476	5198,85
808,652	5283,38
808,829	5157,19
809,005	5198,85
809,181	5033,61
809,357	5097,71
809,533	5003,17
809,71	5056,25
809,886	4990,55
810,062	4926,86
810,238	4978,53
810,414	4981,34
810,59	4885
810,766	4864,57
810,942	4801,48
811,118	4855,76
811,294	4740,39
811,47	4785,65
811,646	4706,74
811,822	4656,07
811,998	4631,43
812,174	4674,49
812,35	4565,74
812,526	4497,84
812,702	4449,97
812,878	4429,74
813,054	4294,94
813,23	4272,71
813,405	4153,14
813,581	4152,54
813,757	4120,29
813,933	4040,37
814,109	3900,57
814,284	3877,54
814,46	3842,49
814,636	3741,14
814,812	3747,35
814,987	3731,13
815,163	3636,59
815,339	3707,69
815,514	3523,62
815,69	3532,24
815,866	3467,74
816,041	3439,7
816,217	3335,95
816,392	3408,66
816,568	3384,42
816,743	3503,8
816,919	3414,07
817,094	3529,83
817,27	3449,32
817,445	3389,83
817,621	3327,54
817,796	3363,59
817,972	3340,36
818,147	3432,69
818,322	3387,63
818,498	3429,89
818,673	3425,08
818,849	3496,59
819,024	3369,8
819,199	3416,27
819,375	3369,2
819,55	3474,75
819,725	3469,75
819,9	3602,74
820,076	3680,25
820,251	3775,79
820,426	3755,36
820,601	3847,69
820,776	3794,42
820,952	3792,41
821,127	3669,84
821,302	3679,05
821,477	3664,83
821,652	3560,68
821,827	3484,77
822,002	3260,84
822,177	3149,08
822,352	3032,51
822,527	2867,07
822,702	2855,66
822,877	2888,5
823,052	2941,78
823,227	3084,79
823,402	3215,78
823,577	3266,65
823,752	3347,17
823,927	3383,42
824,102	3453,92
824,277	3446,51
824,451	3566,49
824,626	3523,42
824,801	3574,7
824,976	3434,3
825,151	3512,81
825,325	3486,77
825,5	3440,1
825,675	3408,26
825,85	3532,84
826,024	3482,16
826,199	3572,7
826,374	3554,07
826,548	3553,27
826,723	3430,29
826,897	3418,07
827,072	3333,55
827,247	3268,65
827,421	3192,14
827,596	3226,99
827,77	3192,54
827,945	3137,87
828,119	3183,53
828,294	3205,16
828,468	3223,59
828,643	3159,5
828,817	3140,47
828,992	3225,99
829,166	3127,65
829,34	3226,39
829,515	3113,63
829,689	3114,23
829,864	3174,12
830,038	3197,95
830,212	3143,67
830,386	3136,86
830,561	3116,83
830,735	3181,93
830,909	3146,08
831,084	3161,1
831,258	3090,2
831,432	3096
831,606	3033,31
831,78	3087,99
831,954	3082,59
832,129	3071,17
832,303	3079,18
832,477	3089,8
832,651	3042,93
832,825	3088,99
832,999	2971,22
833,173	3044,93
833,347	3012,48
833,521	3049,94
833,695	3026,1
833,869	3121,84
834,043	3041,93
834,217	3092,2
834,391	3069,57
834,565	3107,02
834,739	3088,59
834,913	3158,09
835,086	3143,67
835,26	3146,48
835,434	3080,38
835,608	3145,08
835,782	3119,24
835,956	3138,07
836,129	3084,99
836,303	3111,43
836,477	3142,07
836,651	3150,48
836,824	3123,24
836,998	3137,06
837,172	3092
837,345	3096,61
837,519	3072,57
837,693	3086,19
837,866	3016,09
838,04	3037,72
838,213	2993,46
838,387	3069,57
838,56	3029,11
838,734	3010,48
838,907	3008,28
839,081	3072,37
839,254	3002,07
839,428	3062,16
839,601	2984,04
839,775	3041,13
839,948	3016,89
840,122	3032,31
840,295	3001,67
840,468	3024,7
840,642	2960,81
840,815	2977,23
840,988	2979,84
841,162	2981,04
841,335	2969,82
841,508	2996,86
841,682	2913,74
841,855	2972,63
842,028	2949,19
842,201	2989,65
842,374	2929,36
842,548	2920,15
842,721	2925,56
842,894	2904,73
843,067	2896,52
843,24	2906,53
843,413	2851,85
843,586	2811,99
843,759	2815,2
843,932	2816,8
844,105	2851,25
844,278	2834,63
844,451	2797,77
844,624	2819,2
844,797	2810,19
844,97	2813,39
845,143	2804,98
845,316	2850,25
845,489	2795,97
845,662	2780,75
845,835	2728,87
846,008	2773,54
846,18	2733,08
846,353	2725,47
846,526	2710,65
846,699	2763,72
846,872	2688,61
847,044	2780,55
847,217	2673,39
847,39	2758,11
847,563	2622,32
847,735	2702,03
847,908	2648,16
848,081	2710,65
848,253	2686,61
848,426	2630,33
848,598	2587,87
848,771	2600,49
848,944	2501,14
849,116	2531,19
849,289	2435,85
849,461	2489,12
849,634	2401
849,806	2438,05
849,979	2392,58
850,151	2468,7
850,324	2424,23
850,496	2471,1
850,668	2469,3
850,841	2478,51
851,013	2424,83
851,186	2435,05
851,358	2384,77
851,53	2448,27
851,703	2403,8
851,875	2405
852,047	2402,6
852,219	2475,1
852,392	2389,38
852,564	2423,23
852,736	2337,91
852,908	2349,32
853,081	2321,68
853,253	2254,38
853,425	2175,07
853,597	2120,19
853,769	2049,69
853,941	2032,66
854,113	2013,84
854,285	2038,67
854,457	2050,29
854,63	2076,93
854,802	2114,78
854,974	2115,78
855,146	2127,6
855,318	2141,62
855,489	2179,68
855,661	2126,6
855,833	2161,45
856,005	2170,66
856,177	2187,69
856,349	2174,47
856,521	2176,67
856,693	2245,57
856,865	2187,49
857,036	2142,42
857,208	2196,3
857,38	2218,33
857,552	2178,88
857,723	2238,36
857,895	2157,24
858,067	2200,71
858,239	2144,63
858,41	2189,69
858,582	2116,58
858,754	2113,78
858,925	2145,83
859,097	2138,42
859,268	2081,93
859,44	2122,79
859,612	2103,77
859,783	2154,24
859,955	2086,74
860,126	2101,56
860,298	2084,54
860,469	2092,75
860,641	2079,53
860,812	2088,54
860,983	2006,02
861,155	2040,27
861,326	2013,64
861,498	2014,24
861,669	1991,8
861,84	2034,07
862,012	2007,43
862,183	1988,4
862,354	1997,01
862,526	2022,45
862,697	2025,85
862,868	1985,19
863,039	1966,37
863,211	1969,57
863,382	1944,94
863,553	1998,01
863,724	1959,56
863,895	1948,14
864,066	1867,82
864,238	1905,88
864,409	1855,21
864,58	1935,52
864,751	1873,83
864,922	1912,89
865,093	1820,16
865,264	1822,96
865,435	1780,9
865,606	1791,11
865,777	1701,38
865,948	1696,58
866,119	1640,9
866,29	1674,54
866,461	1643,9
866,632	1639,29
866,802	1649,11
866,973	1680,95
867,144	1679,55
867,315	1715,2
867,486	1732,23
867,657	1692,37
867,827	1677,75
867,998	1697,38
868,169	1672,94
868,34	1687,56
868,51	1709,39
868,681	1706,19
868,852	1672,14
869,022	1706,99
869,193	1680,75
869,364	1664,13
869,534	1697,98
869,705	1691,97
869,875	1670,14
870,046	1686,56
870,217	1657,92
870,387	1668,13
870,558	1635,69
870,728	1667,13
870,899	1612,65
871,069	1639,49
871,239	1599,03
871,41	1619,66
871,58	1605,44
871,751	1642,3
871,921	1648,91
872,091	1637,69
872,262	1598,03
872,432	1599,03
872,602	1590,42
872,773	1590,42
872,943	1537,14
873,113	1548,56
873,284	1556,57
873,454	1555,37
873,624	1502,49
873,794	1524,13
873,964	1489,08
874,135	1555,77
874,305	1497,09
874,475	1498,89
874,645	1506,3
874,815	1531,34
874,985	1503,3
875,155	1455,63
875,325	1455,03
875,495	1438,8
875,665	1466,04
875,835	1447,01
876,005	1434,6
876,175	1462,44
876,345	1446,61
876,515	1459,83
876,685	1411,36
876,855	1418,57
877,025	1411,36
877,195	1399,14
877,365	1382,12
877,534	1444,61
877,704	1378,11
877,874	1396,34
878,044	1381,32
878,214	1396,14
878,383	1398,74
878,553	1361,89
878,723	1376,51
878,892	1341,86
879,062	1341,06
879,232	1336,85
879,401	1341,06
879,571	1337,26
879,741	1308,81
879,91	1349,87
880,08	1294,99
880,249	1282,18
880,419	1274,96
880,589	1249,33
880,758	1266,15
880,928	1262,75
881,097	1272,36
881,267	1269,96
881,436	1260,74
881,605	1231,9
881,775	1254,74
881,944	1284,78
882,114	1248,33
882,283	1257,34
882,452	1233,71
882,622	1266,55
882,791	1238,91
882,96	1264,35
883,13	1227,5
883,299	1254,13
883,468	1240,11
883,637	1232,7
883,807	1211,87
883,976	1219,48
884,145	1186,44
884,314	1212,27
884,483	1223,09
884,652	1182,63
884,822	1186,64
884,991	1188,44
885,16	1181,23
885,329	1209,87
885,498	1157,59
885,667	1195,65
885,836	1168,41
886,005	1155,99
886,174	1139,37
886,343	1146,18
886,512	1118,94
886,681	1151,19
886,85	1120,34
887,019	1144,18
887,187	1123,14
887,356	1112,53
887,525	1109,12
887,694	1114,13
887,863	1090,7
888,032	1113,73
888,2	1093,7
888,369	1091,3
888,538	1048,04
888,707	1064,86
888,875	1082,69
889,044	1055,65
889,213	1040,02
889,381	1102,31
889,55	1058,05
889,719	1059,25
889,887	1036,42
890,056	1061,46
890,224	1022,6
890,393	1037,22
890,562	1040,02
890,73	1063,26
890,899	1043,23
891,067	1011,98
891,236	1019,59
891,404	1055,05
891,573	1036,62
891,741	1034,02
891,909	972,93
892,078	1005,97
892,246	975,13
892,415	971,52
892,583	987,15
892,751	998,56
892,92	980,94
893,088	961,51
893,256	910,84
893,424	977,53
893,593	903,23
893,761	941,68
893,929	909,43
894,097	928,06
894,265	930,27
894,434	887,2
894,602	892,01
894,77	879,79
894,938	889,21
895,106	870,78
895,274	849,15
895,442	820,71
895,61	802,48
895,778	812,9
895,946	820,51
896,114	778,85
896,282	827,92
896,45	773,04
896,618	773,44
896,786	775,84
896,954	743,39
897,122	736,58
897,29	721,76
897,458	699,33
897,625	728,77
897,793	684,71
897,961	685,31
898,129	697,13
898,297	672,89
898,464	693,72
898,632	673,09
898,8	675,5
898,968	659,07
899,135	632,43
899,303	601,99
899,471	592,78
899,638	612,8
899,806	630,63
899,973	613,21
900,141	597,98
900,309	614,01
900,476	593,18
900,644	603,79
900,811	604,99
900,979	589,97
901,146	578,76
901,314	572,75
901,481	569,94
901,649	580,16
901,816	587,17
901,983	588,17
902,151	592,18
